2217.7734375,1056.68371582031,1682.19885253906,1738.62475585938,278.272155761719,151.867828369141,1840.82153320312,6442.587890625,1408.0712890625,920.603332519531,2358.8505859375,1174.47900390625,955.544799804688,2061.76708984375,10.8021726608276,369.098754882812,18.2621994018555,782.542358398438,168.035171508789,2689.029296875,1583.02380371094,1974.48388671875,3426.99145507812,55.1323776245117,641.047424316406,6956.25146484375,5526.109375,4347.13232421875,192.746887207031,6249.83642578125,2265.30297851562,1166.04125976562,1687.57751464844,689.758728027344,3524.98291015625,1176.8505859375,585.318359375,4267.88330078125,1243.99450683594,2224.65112304688,179.644775390625,904.12744140625,6655.86572265625,2102.951171875,1152.72485351562,4277.82861328125,15.4189119338989,1904.158203125,1983.36315917969,722.429992675781,864.604797363281,5361.7060546875,7427.78564453125,7019.78759765625,980.752075195312,99.431755065918,627.20654296875,1024.22998046875,1398.9130859375,2750.8037109375,398.584014892578,480.183929443359,584.3349609375,20.7299690246582,1624.63293457031,1545.38024902344,968.8837890625,1671.47485351562,1697.62023925781,412.538696289062,285.029022216797,444.610015869141,737.946472167969
6.62563133239746,2949.48022460938,857.808837890625,3831.94409179688,7395.39892578125,3533.2236328125,114.198768615723,369.478820800781,2867.2509765625,2632.19946289062,11.2470474243164,959.05615234375,775.246887207031,106.736976623535,705.88623046875,1196.35913085938,7088.37255859375,8838.3095703125,2066.20532226562,4609.96044921875,3.5161669254303,3410.53125,2003.34680175781,8850.40625,7246.66845703125,1486.54333496094,517.708068847656,242.368789672852,6081.15234375,652.751281738281,3187.52392578125,1446.26489257812,2468.3798828125,5514.5478515625,48.5882606506348,669.418395996094,1481.16833496094,31.3596420288086,153.681365966797,710.938781738281,4407.17431640625,2347.26733398438,202.377548217773,782.33251953125,4207.37109375,343.128326416016,6411.9267578125,15.7821702957153,1169.09899902344,2627.62060546875,2801.03100585938,160.206405639648,1249.40930175781,1066.39575195312,5363.2880859375,758.578063964844,0.30427548289299,826.043273925781,1612.57678222656,394.982269287109,1010.21759033203,2541.7939453125,1043.23767089844,3926.07104492188,1050.66674804688,452.506469726562,4178.2802734375,269.463348388672,899.80029296875,3161.05444335938,4363.15234375,824.346313476562,1586.20812988281
2832.94311523438,76.4726028442383,3706.93041992188,0.0174426045268774,44.6625671386719,860.534362792969,10598.3701171875,1688.95092773438,272.234893798828,212.902923583984,3954.01782226562,129.959121704102,1139.17687988281,1329.51904296875,748.741882324219,396.133209228516,1449.80126953125,2273.646484375,4821.34619140625,472.357849121094,3647.67993164062,5002.66845703125,3078.76635742188,137.639343261719,0.442796856164932,1956.56286621094,1500.52026367188,2187.81298828125,135.682312011719,1808.90759277344,543.807556152344,2967.35620117188,6.99899673461914,31.3279323577881,1437.49169921875,1470.4599609375,904.299621582031,1392.87829589844,3871.65649414062,3504.39111328125,2.00815534591675,2324.7431640625,2135.90063476562,1936.96618652344,221.360168457031,1059.30773925781,318.669158935547,4448.85205078125,2766.24951171875,1554.72314453125,1873.28076171875,2317.78564453125,1894.64233398438,1685.69091796875,2201.75390625,1227.79663085938,1532.18920898438,767.162109375,629.483825683594,970.942260742188,430.712738037109,75.3186798095703,393.246673583984,195.213531494141,125.143280029297,1544.79663085938,94.7363128662109,4581.84228515625,2835.88989257812,1371.69091796875,641.198852539062,1025.91027832031,799.503112792969
22.7051105499268,4852.02392578125,523.218505859375,6218.28369140625,2805.26977539062,6644.97509765625,1215.97937011719,3202.7451171875,797.697448730469,1612.44909667969,301.559234619141,3551.3681640625,1674.54870605469,1311.921875,70.2605133056641,2110.55297851562,2015.681640625,3700.24365234375,112.889472961426,3647.66430664062,356.954315185547,773.387390136719,6624.28466796875,2645.8681640625,2612.82495117188,3869.4716796875,2030.6845703125,2209.8193359375,1909.03759765625,3043.1923828125,6916.29052734375,397.930145263672,6487.8505859375,2217.177734375,1386.9853515625,2007.71569824219,1563.83911132812,1717.18969726562,14.8625268936157,1697.47839355469,1424.03393554688,826.186340332031,2949.62377929688,779.794189453125,2094.95581054688,1671.61901855469,1793.87780761719,170.864059448242,702.2099609375,3070.52172851562,3295.04711914062,2346.6904296875,3552.06518554688,3199.74145507812,1144.24609375,6.3473687171936,160.47346496582,2430.8447265625,1081.66821289062,1036.62731933594,1496.82885742188,952.924194335938,2096.58862304688,1278.53771972656,2599.94873046875,701.140563964844,1379.47021484375,551.721496582031,1756.82312011719,877.245239257812,1304.93627929688,200.102890014648,2714.06909179688
58.281810760498,726.236328125,6161.875,320.315155029297,2202.70458984375,1111.52990722656,4708.115234375,10.7271938323975,1062.08251953125,950.142456054688,635.90185546875,80.9553070068359,262.6962890625,442.067443847656,2216.8828125,904.00390625,4764.11279296875,5720.322265625,9500.9052734375,1873.77612304688,891.965698242188,3419.96264648438,599.452941894531,3460.98706054688,3204.8486328125,290.513946533203,41.7299880981445,1548.65991210938,3944.5908203125,69.7422409057617,0.33076873421669,5278.32421875,159.345123291016,2284.50073242188,655.618713378906,642.142456054688,2638.66748046875,69.7467041015625,1109.77526855469,731.629516601562,1484.77600097656,1597.50402832031,4.7415943145752,3009.78076171875,1480.35778808594,46.829475402832,2761.45434570312,1356.04663085938,5243.35888671875,3291.10180664062,4527.88671875,1547.76586914062,373.648468017578,372.293212890625,3038.75341796875,2549.53881835938,438.398956298828,276.923492431641,460.359588623047,97.5810852050781,1251.8408203125,1020.31048583984,585.509765625,1599.86572265625,147.081573486328,1589.02465820312,1549.04174804688,1281.88818359375,666.199279785156,1389.04699707031,1528.65063476562,2260.2841796875,2517.322265625
1547.08996582031,1340.87426757812,1234.75573730469,2041.15002441406,333.045013427734,1404.87280273438,4786.4775390625,4243.91943359375,558.358032226562,735.377990722656,1737.78686523438,1548.74938964844,1151.50219726562,3127.51293945312,444.153076171875,455.624237060547,286.574523925781,391.714050292969,216.983932495117,4089.24780273438,1869.43249511719,2049.228515625,3469.40112304688,15.5275163650513,849.664001464844,6373.65869140625,4984.6904296875,5292.9443359375,228.896392822266,6341.802734375,1976.65319824219,1389.3896484375,2185.66748046875,705.637451171875,3525.84497070312,1307.11145019531,501.072174072266,4339.958984375,1047.03833007812,1924.02429199219,133.683471679688,873.889953613281,7191.2177734375,1984.05834960938,1077.5380859375,4368.7265625,8.63440608978271,1779.88464355469,1976.83093261719,744.063659667969,609.782165527344,5292.84228515625,6807.8779296875,6565.296875,865.328369140625,5.75506782531738,630.499755859375,1192.5439453125,1377.88293457031,2620.98608398438,568.601806640625,298.288299560547,1007.05108642578,3.68126273155212,730.622985839844,1223.4365234375,691.318298339844,1585.08349609375,1467.62145996094,127.603393554688,22.7222862243652,837.424194335938,597.27197265625
95.6130828857422,2719.17236328125,1483.65844726562,3242.82861328125,3867.30639648438,2325.6630859375,0.114935718476772,53.1556129455566,2629.7509765625,2915.02563476562,184.616317749023,2082.89013671875,631.86572265625,42.9761199951172,285.609588623047,607.851379394531,8848.8017578125,9343.16796875,3061.17065429688,4775.375,94.7710189819336,4225.0634765625,2702.69653320312,8980.640625,7568.9736328125,1316.38671875,577.719055175781,188.63069152832,7266.79248046875,763.627746582031,2972.5439453125,1263.88464355469,2486.37426757812,5475.986328125,89.7264862060547,662.176086425781,1350.04895019531,11.7721109390259,90.2666854858398,788.938598632812,4408.04248046875,2253.115234375,392.547637939453,780.731323242188,3620.35107421875,209.986038208008,6408.8642578125,1.43651688098907,1251.76708984375,2308.49731445312,2850.2802734375,203.282028198242,1355.30700683594,1214.71887207031,5510.1611328125,212.298950195312,124.336845397949,875.195678710938,1643.95007324219,375.014007568359,877.015686035156,2280.3798828125,412.846282958984,4038.64892578125,1787.96411132812,242.215896606445,3407.73779296875,187.485107421875,855.317687988281,2779.89331054688,3649.25561523438,366.055236816406,2309.1015625
6276.439453125,13.8210487365723,3104.81372070312,119.261940002441,25.2853813171387,324.26318359375,3590.5048828125,1213.76574707031,241.322738647461,0.188663974404335,2790.169921875,363.751098632812,1453.38623046875,610.123229980469,1038.52160644531,326.470367431641,1613.63146972656,2574.5009765625,5428.734375,475.158966064453,3222.21362304688,5269.10693359375,2577.41796875,152.673538208008,90.508171081543,1508.36254882812,1398.58288574219,2407.84716796875,13.9910116195679,1663.99755859375,366.300964355469,2939.9833984375,19.2946300506592,35.8363571166992,1451.61865234375,1677.79907226562,856.609130859375,1619.8359375,3677.474609375,3696.04150390625,0.109057322144508,2445.958984375,1816.82983398438,1709.81481933594,164.771789550781,1708.50549316406,348.113891601562,4841.48046875,2842.1005859375,1234.56359863281,1940.28381347656,2479.64526367188,1706.32177734375,1636.40747070312,2187.4970703125,581.962524414062,1976.26379394531,778.013122558594,503.058441162109,984.487121582031,466.836578369141,109.616134643555,201.036544799805,189.1689453125,2.97011613845825,1000.66680908203,181.159255981445,3929.9296875,2746.01953125,550.399475097656,172.736434936523,1178.79711914062,919.90380859375
249.919082641602,5469.5419921875,112.426452636719,6371.96923828125,1006.71881103516,4771.70068359375,119.337921142578,2308.302734375,1729.75061035156,1797.59704589844,447.839630126953,3686.81005859375,1734.16052246094,544.984191894531,53.0756759643555,1329.13403320312,1927.66394042969,1607.01416015625,184.608947753906,3171.89770507812,404.607147216797,1020.7548828125,6998.72412109375,3157.41674804688,2836.66674804688,3731.10766601562,2690.4541015625,2274.080078125,2216.93579101562,3210.841796875,6515.48681640625,365.937957763672,5787.271484375,2258.04541015625,1706.21337890625,2310.8330078125,1474.099609375,1698.22216796875,3.43008065223694,1798.68957519531,1572.80969238281,654.80322265625,3368.67041015625,840.426147460938,1411.91247558594,1483.71081542969,1730.26916503906,202.752517700195,851.310485839844,3416.71166992188,3441.33837890625,2495.8232421875,3773.431640625,3176.92578125,1115.29846191406,217.516891479492,387.174407958984,2501.91845703125,1031.95654296875,1078.54272460938,1360.89172363281,762.521850585938,1564.40734863281,1412.50366210938,3715.27319335938,1253.45642089844,1315.09655761719,575.444030761719,2541.54565429688,1044.12451171875,1272.77990722656,197.055572509766,2622.96801757812
2415.69946289062,162.269058227539,6589.50146484375,183.052459716797,3088.97119140625,788.57763671875,1814.12780761719,131.436141967773,908.38818359375,1605.83850097656,728.247802734375,0.012916031293571,423.940246582031,159.911712646484,2155.90356445312,871.048034667969,5227.7529296875,4509.673828125,10423.908203125,3039.3515625,678.496948242188,3449.77514648438,441.951477050781,3129.09008789062,2592.10180664062,393.011383056641,75.9979248046875,1646.02355957031,2945.14135742188,112.629127502441,12.4940967559814,5467.56494140625,216.611221313477,2263.6123046875,547.073791503906,440.793731689453,2747.91772460938,197.332641601562,1436.41418457031,1202.1826171875,1653.5908203125,1615.8916015625,0.278701156377792,2771.61328125,1436.74145507812,0.173221230506897,2987.83154296875,1444.63293457031,4640.1962890625,3568.1318359375,4231.40869140625,1449.28271484375,220.129211425781,282.545623779297,3463.31689453125,2383.23291015625,721.82958984375,294.490600585938,444.947906494141,61.6936378479004,1398.53186035156,756.093078613281,1228.22253417969,1196.13720703125,119.214141845703,2450.75341796875,949.489135742188,997.885070800781,948.700012207031,1642.42626953125,976.332214355469,2127.10424804688,1758.88415527344
3734.76318359375,1879.6748046875,782.127319335938,2229.3779296875,281.069549560547,1350.42626953125,2084.25219726562,5242.1865234375,1488.33679199219,1168.50524902344,1936.59753417969,1478.12829589844,1349.46508789062,2010.20617675781,39.8526344299316,541.877380371094,971.737854003906,920.431823730469,168.851806640625,3093.22778320312,1491.34399414062,1776.26928710938,3706.85668945312,56.7139434814453,452.359222412109,7014.02294921875,5122.615234375,5232.25048828125,285.159606933594,6153.2109375,2288.12573242188,1229.80102539062,1645.03295898438,784.826965332031,4359.9658203125,1388.83850097656,504.316528320312,4654.06103515625,1429.11047363281,2261.16918945312,134.209594726562,982.368103027344,6942.8935546875,2051.63403320312,943.677490234375,4123.115234375,25.7516784667969,1819.833984375,1916.99890136719,811.106567382812,808.143798828125,5481.9091796875,7560.4345703125,6801.4873046875,1131.74755859375,45.9500274658203,751.942199707031,1117.86022949219,1405.70361328125,3041.36279296875,559.08935546875,530.375305175781,750.038940429688,3.27930355072021,1068.46789550781,2989.73266601562,871.016662597656,1218.48620605469,2458.80786132812,272.528656005859,4.21027755737305,288.154266357422,436.320129394531
13.2342100143433,2478.81030273438,2521.04638671875,3443.04125976562,7067.5068359375,2262.66137695312,289.897125244141,14.0375394821167,2715.04907226562,2277.42749023438,80.7235488891602,2238.71630859375,399.810974121094,56.4763412475586,889.28564453125,996.282043457031,9037.2373046875,7004.423828125,2508.7314453125,6202.1142578125,36.1906471252441,4001.9794921875,3105.82983398438,8525.3115234375,6466.68994140625,1681.26867675781,513.359313964844,311.550567626953,6471.22265625,744.059509277344,2550.50854492188,1153.77697753906,2671.18530273438,5173.232421875,55.6183090209961,852.044006347656,1620.30078125,1.45634686946869,136.340621948242,559.628540039062,4465.33837890625,2216.2705078125,108.444755554199,756.546203613281,3759.546875,186.176773071289,6658.79150390625,0.110552884638309,1146.34362792969,2977.02563476562,3049.33056640625,113.670486450195,1103.26867675781,1214.63464355469,5966.12548828125,976.213012695312,86.4638595581055,658.758850097656,1497.52795410156,352.859313964844,1056.01220703125,2884.14233398438,1128.01062011719,2851.59399414062,1433.46716308594,853.699035644531,2434.11499023438,201.503189086914,553.543151855469,3100.40893554688,3240.70434570312,763.416564941406,1579.56848144531
6237.015625,0.109467700123787,3852.44799804688,215.16242980957,60.4902114868164,148.441696166992,6284.44482421875,1130.92236328125,236.246185302734,187.398101806641,3515.09375,172.587905883789,1662.66296386719,879.816162109375,1025.33081054688,359.515563964844,1408.79406738281,2258.91137695312,4522.47607421875,434.794097900391,3365.00268554688,4218.31787109375,2446.71118164062,251.912200927734,1.42127478122711,1414.05310058594,1232.30395507812,2528.68286132812,0.540708541870117,1581.28576660156,496.092834472656,2415.60375976562,0.371555626392365,62.288272857666,1577.86853027344,1782.17907714844,885.647644042969,1517.47875976562,4228.751953125,3762.12768554688,1.59069657325745,2537.82934570312,2316.02075195312,1733.69445800781,239.011337280273,1365.66198730469,421.165374755859,4738.72021484375,2676.4736328125,1511.54797363281,1914.59020996094,2466.970703125,1828.10131835938,1839.35668945312,2210.4140625,1100.20495605469,1872.55041503906,817.275207519531,573.793029785156,845.525512695312,379.466156005859,232.398681640625,239.1123046875,254.416946411133,48.8780517578125,1882.67517089844,223.949264526367,3049.33276367188,2642.20288085938,1339.75451660156,209.738830566406,1114.8740234375,1121.37939453125
104.782020568848,4511.71435546875,11.2711982727051,6513.03369140625,2445.60473632812,5224.27783203125,526.495788574219,1685.5537109375,1556.50244140625,1081.431640625,323.68798828125,4322.67333984375,1542.3603515625,1121.36962890625,2.32296133041382,1269.87841796875,1372.87854003906,1349.55834960938,5.19541597366333,3478.70385742188,284.521636962891,1261.92980957031,6918.28173828125,3004.08618164062,2737.56713867188,3844.18676757812,2815.41870117188,2276.59228515625,2246.76708984375,2986.81909179688,6222.69775390625,429.341918945312,5481.275390625,1993.39685058594,1560.52514648438,2218.56713867188,1492.51721191406,1738.87451171875,0.48160919547081,1810.08374023438,1410.10583496094,689.712463378906,3004.14501953125,822.513000488281,1711.82397460938,1631.86791992188,1714.92041015625,130.581146240234,604.69775390625,3445.79052734375,3686.54833984375,2635.232421875,3632.59887695312,3578.63818359375,1263.23376464844,116.157424926758,373.887268066406,2567.923828125,1104.13708496094,920.490600585938,1692.79113769531,1035.45129394531,1687.00341796875,905.023742675781,3447.95971679688,696.808898925781,729.251098632812,639.050170898438,1738.64440917969,592.451965332031,1014.26409912109,80.3980407714844,2651.93676757812
1645.70727539062,227.388763427734,6356.283203125,54.8671340942383,2030.55773925781,760.964782714844,775.403381347656,29.0528030395508,1124.41174316406,955.766296386719,687.346557617188,142.659149169922,447.249145507812,173.468826293945,3037.38305664062,963.1572265625,2232.41430664062,5643.02978515625,8616.634765625,2889.36059570312,932.753967285156,3015.12231445312,477.291839599609,4065.27075195312,3041.40698242188,498.282165527344,143.347869873047,1462.14221191406,2796.40234375,78.3668746948242,12.8463945388794,4929.57470703125,159.649063110352,2262.21801757812,464.189910888672,619.788879394531,2557.85107421875,82.2817077636719,1326.810546875,922.359313964844,1473.08776855469,1715.31481933594,23.8843727111816,2901.93310546875,1583.18530273438,4.29945135116577,2786.58764648438,1660.29479980469,5291.54150390625,3343.43701171875,4463.64111328125,1501.2177734375,293.270263671875,315.644073486328,2830.80786132812,5646.74755859375,665.890747070312,162.677917480469,452.279052734375,283.070831298828,1257.77294921875,727.994812011719,1068.98168945312,2271.77783203125,344.676666259766,1726.81616210938,1743.1943359375,1050.19055175781,474.690612792969,2387.57958984375,1291.64953613281,2918.56762695312,2273.1875
2359.79150390625,886.864135742188,483.305877685547,1694.58459472656,248.907028198242,1344.75732421875,1618.81628417969,5266.40380859375,1265.00231933594,782.122924804688,787.166442871094,1169.94616699219,1459.78454589844,2914.98583984375,193.200256347656,259.141296386719,1523.51525878906,785.004577636719,270.156799316406,2593.279296875,1767.37353515625,1657.51989746094,3345.97094726562,52.9325141906738,777.566101074219,6489.29736328125,6040.53125,5863.30859375,341.850891113281,5928.25048828125,2280.984375,956.321838378906,1467.80346679688,775.055603027344,3925.63598632812,1467.23388671875,443.614440917969,4432.6650390625,1053.70751953125,2083.45434570312,175.992721557617,873.906677246094,7632.20849609375,2095.76245117188,885.599914550781,4437.4306640625,15.7766485214233,1918.57092285156,1877.01306152344,823.854614257812,724.294189453125,5138.28515625,7010.51416015625,6565.54296875,985.443054199219,77.0915908813477,829.719787597656,1322.62036132812,1532.88452148438,2995.265625,548.082092285156,342.3212890625,560.726806640625,0.109412170946598,929.011413574219,1992.6630859375,396.623138427734,1877.13928222656,1773.75268554688,286.354766845703,195.190856933594,388.228759765625,470.909393310547
157.995956420898,1735.64611816406,760.75927734375,2658.626953125,6441.3642578125,2692.9853515625,84.8616485595703,183.762100219727,2822.44555664062,2625.02563476562,20.3523750305176,2004.64904785156,564.276306152344,13.2467803955078,949.92236328125,741.142517089844,8572.21484375,9349.2822265625,2253.09106445312,5802.2275390625,166.564346313477,3906.19702148438,2436.41528320312,9454.1171875,8080.24755859375,1395.05798339844,752.961242675781,131.253494262695,6978.71630859375,634.225402832031,2520.107421875,1517.04040527344,2498.96020507812,5819.115234375,46.175422668457,820.368347167969,1242.66711425781,6.69484949111938,110.722602844238,578.1484375,4012.91064453125,2312.51245117188,120.215148925781,953.474548339844,4180.3427734375,160.409927368164,6207.06982421875,0.402406513690948,1268.12915039062,2528.171875,2919.81298828125,164.516677856445,1073.09704589844,1201.97998046875,5427.23583984375,2287.8740234375,121.621536254883,1095.03247070312,1536.40856933594,609.980773925781,797.364868164062,2720.0458984375,1496.54089355469,4396.97607421875,1345.34484863281,394.819580078125,5199.4736328125,143.66374206543,773.180725097656,3845.82275390625,2991.2841796875,1054.04064941406,2292.98657226562
6173.662109375,8.21518421173096,2952.08276367188,6.51431798934937,33.0459976196289,324.761169433594,2986.09448242188,2707.775390625,93.9382705688477,54.831958770752,2375.83984375,360.791290283203,1326.75061035156,648.089660644531,1021.57336425781,267.380157470703,3093.767578125,2086.36474609375,2865.65356445312,407.910339355469,3153.79809570312,5495.75537109375,2546.29345703125,167.765975952148,1.59140515327454,1569.25500488281,1273.75012207031,2977.35498046875,13.6358461380005,1482.64123535156,576.675109863281,2270.70922851562,1.39004278182983,76.7733001708984,1363.36547851562,1762.06384277344,754.882995605469,1490.5400390625,3251.13159179688,3711.79150390625,9.81210613250732,2494.08740234375,2294.8095703125,1805.5986328125,144.215866088867,1409.75183105469,329.098266601562,4660.39013671875,2711.634765625,1409.07470703125,2077.99536132812,2157.20361328125,1628.07531738281,1411.71301269531,2282.61767578125,298.186187744141,2136.9853515625,905.036499023438,535.897155761719,1637.18249511719,475.863800048828,411.299713134766,411.761840820312,128.872283935547,23.7200107574463,1553.66979980469,91.8212432861328,3431.85302734375,2925.90258789062,785.69677734375,828.994079589844,711.48486328125,1585.04211425781
41.4965476989746,4860.955078125,128.744369506836,6032.63818359375,2053.09155273438,5607.10205078125,400.105987548828,4654.17578125,1653.57678222656,1839.626953125,112.948371887207,2909.32421875,1584.71472167969,944.895751953125,7.42046928405762,1448.7939453125,4069.75415039062,1154.50476074219,9.23776149749756,2348.81420898438,744.040161132812,821.411987304688,6541.265625,3279.30712890625,3375.98754882812,3924.490234375,2512.2490234375,2620.42456054688,2433.865234375,2904.21142578125,6237.96044921875,322.181701660156,6219.24365234375,2327.43676757812,1499.01049804688,2090.7724609375,1183.54016113281,1765.90869140625,1.34656977653503,1585.97998046875,1432.328125,671.514099121094,2645.47998046875,644.055358886719,1766.81127929688,1333.033203125,1792.86755371094,162.859222412109,781.506469726562,3144.17333984375,3307.2216796875,2400.18774414062,3493.95288085938,3209.13842773438,1291.57678222656,8.06921291351318,426.463287353516,2574.423828125,1037.8603515625,918.914123535156,1350.52856445312,1462.00952148438,2458.37622070312,1004.17572021484,3402.740234375,740.721618652344,1977.09826660156,756.351135253906,1644.18920898438,871.504760742188,875.019592285156,15.3648843765259,3863.03295898438
1317.34826660156,411.794738769531,8988.16015625,212.616195678711,3631.02563476562,1055.80102539062,1501.44311523438,119.810409545898,1490.44848632812,1114.11547851562,814.917236328125,45.3996162414551,183.709381103516,37.1565971374512,2483.9716796875,1014.79058837891,4387.92333984375,4336.35888671875,8809.6357421875,2077.56958007812,676.067749023438,4374.185546875,454.450408935547,3765.8974609375,3368.13696289062,377.293853759766,179.128265380859,1874.92358398438,3186.02197265625,69.5731048583984,12.8500967025757,5112.28369140625,295.869079589844,2093.03515625,360.956237792969,601.691101074219,2192.01806640625,78.3523559570312,1315.74230957031,1118.03405761719,1565.36560058594,1824.40661621094,14.4383306503296,2759.90747070312,1509.45727539062,3.21186232566833,2956.73779296875,1357.54345703125,4509.6318359375,3479.24731445312,4452.9501953125,1509.0751953125,291.016632080078,363.653472900391,3031.57983398438,2570.85668945312,720.313537597656,340.792755126953,500.314697265625,1.46155381202698,1089.59497070312,171.56086730957,1094.03112792969,1645.94348144531,287.05615234375,1838.46325683594,1558.75354003906,434.819946289062,725.450622558594,2046.32739257812,2313.30151367188,1863.75903320312,3461.03100585938
2656.70190429688,2032.13366699219,6.45874404907227,3373.44604492188,25.9265842437744,1266.0458984375,3705.73950195312,6701.8955078125,1334.82263183594,1463.13110351562,1138.2119140625,1106.48608398438,1220.70617675781,2661.95166015625,69.6586074829102,448.132720947266,119.410171508789,415.148315429688,450.509857177734,926.902770996094,1734.19799804688,2261.73901367188,3154.091796875,72.7032775878906,990.780090332031,7564.20166015625,5068.02392578125,6032.02294921875,312.730529785156,5798.98779296875,2273.44165039062,1326.02111816406,1803.78295898438,655.541198730469,4076.29516601562,1238.07019042969,416.717895507812,4514.53955078125,1305.72595214844,2044.37939453125,191.284744262695,878.111022949219,7664.59423828125,2101.93969726562,1072.56372070312,4079.40405273438,16.9256973266602,1626.40258789062,1789.04528808594,593.73388671875,610.825866699219,5429.5419921875,7094.15380859375,6796.482421875,901.854797363281,229.43098449707,726.394653320312,1075.72912597656,1503.76586914062,2404.82177734375,716.78662109375,649.656066894531,689.8662109375,18.5383358001709,1075.07507324219,1738.18225097656,534.602172851562,1561.55126953125,1336.61169433594,392.975677490234,32.3742828369141,24.2874870300293,897.404052734375
21.4770526885986,4198.02783203125,2357.44995117188,3189.76025390625,7850.62060546875,2206.82080078125,1424.08203125,80.8788375854492,2338.72094726562,2322.78588867188,326.857025146484,1701.05554199219,546.541259765625,15.4513378143311,625.662414550781,1618.67175292969,7959.93896484375,8043.84619140625,4133.06298828125,4806.6142578125,6.11743116378784,4615.47802734375,2348.45361328125,9413.6484375,7281.0908203125,1446.30773925781,637.553527832031,286.509246826172,6925.4189453125,417.001159667969,2672.0419921875,1318.61401367188,2542.6728515625,4983.7265625,13.0249586105347,664.133422851562,1400.63452148438,29.0600357055664,245.076156616211,554.454956054688,4628.2314453125,2537.96337890625,352.017486572266,786.029541015625,4049.27661132812,151.541351318359,6522.78076171875,2.91761922836304,1101.80395507812,2363.84716796875,2696.54150390625,158.462142944336,997.298461914062,1218.62768554688,5414.9755859375,1119.4716796875,160.561645507812,731.936096191406,1573.77319335938,365.079437255859,673.388000488281,2034.50439453125,986.404174804688,4155.291015625,1438.232421875,224.730514526367,4393.4921875,387.065368652344,894.711669921875,3833.365234375,4469.63623046875,657.384460449219,2600.63696289062
5264.33203125,3.88656711578369,438.648101806641,780.652587890625,170.233184814453,275.278533935547,18189.705078125,1425.37524414062,301.326965332031,134.974349975586,3128.34204101562,283.906311035156,1659.65539550781,1049.89526367188,963.110595703125,318.102294921875,1295.85302734375,16.7513294219971,3539.779296875,7.63434410095215,3139.96362304688,5332.12158203125,2506.31494140625,162.212783813477,29.783296585083,1715.59826660156,1498.26354980469,3241.26611328125,13.3813810348511,1421.47265625,522.244140625,2655.48950195312,5.70991945266724,23.7146644592285,1680.39575195312,1939.91821289062,836.625915527344,1227.12670898438,3907.75024414062,3477.37915039062,6.19884014129639,2276.58911132812,1920.23583984375,2198.70288085938,207.166259765625,1505.26733398438,421.356811523438,4826.4638671875,2762.7294921875,1433.84155273438,1985.80212402344,2907.64013671875,1571.04382324219,1787.81567382812,2214.6201171875,654.612548828125,2007.56115722656,758.239013671875,520.552551269531,973.238891601562,289.873291015625,72.4759521484375,349.238403320312,191.083786010742,64.414306640625,1312.39282226562,86.4694137573242,2952.26220703125,2124.28540039062,1013.80187988281,371.834136962891,951.311401367188,1176.74401855469
112.806312561035,7343.9453125,1116.70678710938,6490.6201171875,2243.5556640625,4002.68603515625,7026.32080078125,1588.70654296875,1986.27307128906,1442.23059082031,1644.07629394531,3690.60009765625,1299.28149414062,380.682312011719,20.687816619873,2052.66162109375,1797.44995117188,1940.25183105469,109.118003845215,2817.43676757812,271.761291503906,839.137634277344,6545.3125,3085.52685546875,3197.95068359375,3565.7578125,2752.07641601562,2248.2890625,2576.22192382812,2433.09008789062,6163.61669921875,398.752807617188,5739.5361328125,1878.04016113281,1786.42590332031,2264.26318359375,1599.21179199219,1614.29821777344,14.3771286010742,1658.17907714844,1537.11535644531,877.783020019531,2975.8388671875,706.282043457031,1669.83703613281,1562.67810058594,1617.76025390625,152.204055786133,709.687133789062,3076.27514648438,3191.33569335938,3036.115234375,3296.69702148438,3496.29296875,1269.65197753906,0.00615059025585651,568.544311523438,2588.19409179688,1015.19683837891,1046.52905273438,1337.67993164062,1115.10705566406,2172.10375976562,1246.70544433594,3007.58666992188,1105.80786132812,1692.18383789062,481.881164550781,2086.50952148438,864.046081542969,1061.09484863281,148.167861938477,2994.150390625
1397.25219726562,596.576599121094,5649.435546875,116.457626342773,2441.751953125,601.595520019531,16642.39453125,441.779388427734,1150.16442871094,1520.29724121094,909.562316894531,20.4877014160156,456.696655273438,464.473815917969,2052.671875,571.050537109375,3946.72192382812,1236.92211914062,5134.15478515625,1918.67785644531,650.098571777344,3684.94067382812,785.765075683594,3463.81567382812,3503.87133789062,327.269287109375,72.7262420654297,1985.97790527344,3588.18969726562,89.3740158081055,9.37095355987549,5247,114.125114440918,2244.23803710938,543.593505859375,543.887512207031,2682.92700195312,67.6980209350586,1283.2470703125,882.662170410156,1527.18872070312,1555.68835449219,22.1231212615967,3310.22802734375,1702.39245605469,5.7094578742981,2839.06689453125,1538.41979980469,5425.8916015625,3279.083984375,4322.38916015625,2007.34716796875,330.729461669922,340.463623046875,3161.03637695312,1520.34790039062,741.108215332031,232.591232299805,560.588684082031,34.2381935119629,1292.54187011719,949.318359375,992.749328613281,1679.59265136719,476.894805908203,1947.2236328125,1539.353515625,879.661865234375,574.100830078125,1571.43298339844,1517.81884765625,2974.09692382812,2446.00170898438
2029.96411132812,1279.76452636719,2524.5771484375,1862.79187011719,268.944793701172,750.6455078125,18219.03125,5223.6494140625,3175.3701171875,942.671020507812,3231.75537109375,757.456481933594,1016.13598632812,1540.82897949219,31.86794090271,369.771392822266,2599.81640625,854.431457519531,212.762588500977,2633.92724609375,2173.62231445312,2275.16674804688,5151.6748046875,31.2116851806641,591.3818359375,6941.0732421875,5458.947265625,5505.24462890625,461.486419677734,6044.66162109375,2134.939453125,1266.24084472656,2052.42700195312,746.780639648438,4349.12451171875,1449.34118652344,394.988708496094,3866.54467773438,1313.69445800781,2000.45581054688,154.790481567383,721.440063476562,5585.49267578125,2037.49353027344,677.891540527344,4267.3740234375,20.2991886138916,2143.41479492188,1916.87731933594,743.236450195312,692.5322265625,6033.7685546875,7231.2451171875,6897.03564453125,999.895751953125,46.8374633789062,894.77294921875,1190.30029296875,1372.865234375,2492.77587890625,504.014190673828,528.364685058594,818.915161132812,7.94428110122681,842.267150878906,1584.96130371094,342.988098144531,1511.26794433594,1556.53881835938,199.0517578125,115.629943847656,533.513977050781,748.686218261719
30.6201515197754,3572.18579101562,2806.69311523438,3719.42944335938,5378.4638671875,1405.37780761719,3544.91870117188,11.7735509872437,3166.49536132812,2729.94580078125,158.919937133789,2070.41870117188,494.825042724609,107.232154846191,581.315124511719,396.699951171875,8404.0263671875,9670.548828125,1658.96740722656,4040.05224609375,309.177124023438,4238.27001953125,2439.45532226562,8654.4970703125,6547.00634765625,1122.39233398438,602.335510253906,215.881530761719,7854.26904296875,618.042846679688,2698.86010742188,1396.37683105469,2371.4755859375,5082.00537109375,58.2384643554688,1130.09118652344,1468.71533203125,0.804584443569183,100.221549987793,610.840393066406,4649.9462890625,2134.09741210938,73.9841079711914,771.748352050781,4170.63671875,202.789169311523,6275.142578125,21.936336517334,1295.27172851562,2551.89184570312,2977.06689453125,258.308898925781,1036.83532714844,1306.13562011719,5452.79345703125,359.916076660156,187.760314941406,725.701477050781,1556.45458984375,301.318115234375,877.544372558594,2476.29321289062,847.837463378906,3938.5703125,1858.67272949219,365.49267578125,5309.2001953125,99.2021713256836,712.439819335938,2951.52905273438,3064.796875,829.267395019531,1748.87536621094
5021.71826171875,152.948745727539,3502.3271484375,85.3403930664062,2.82686567306519,331.144927978516,42775.7265625,2288.43994140625,636.505554199219,57.8226432800293,4067.67309570312,53.746524810791,1075.74230957031,669.486877441406,734.706970214844,528.564392089844,6786.33203125,2448.47192382812,3214.88500976562,468.095611572266,3282.96899414062,5012.8037109375,4055.93432617188,273.311248779297,0.524409532546997,1766.50793457031,1273.19360351562,2797.84790039062,0.102437190711498,1733.63159179688,477.856048583984,2546.5283203125,25.6972484588623,75.3604202270508,1767.58654785156,1581.46203613281,954.511413574219,1082.37121582031,3961.72583007812,3609.58276367188,0.768521428108215,2266.55590820312,2972.04809570312,1936.62512207031,103.002937316895,1299.50183105469,351.255493164062,4625.935546875,2703.50659179688,1441.71667480469,1905.99072265625,2417.63159179688,1779.53698730469,1834.37829589844,2491.9248046875,605.049926757812,2048.9326171875,787.746398925781,512.275634765625,867.734008789062,509.118560791016,215.299072265625,474.141387939453,150.219085693359,15.5354986190796,1229.53198242188,1.17605710029602,3837.14282226562,2319.73974609375,548.337036132812,498.987915039062,1112.5185546875,915.491149902344
89.6215972900391,5290.68994140625,379.846343994141,5210.75439453125,1901.42431640625,3846.40185546875,7570.47216796875,2741.14184570312,1515.82800292969,1101.35778808594,788.704528808594,3668.79174804688,1320.44677734375,913.630310058594,4.1624755859375,1064.23010253906,1783.09643554688,3905.42553710938,269.368408203125,3608.78857421875,701.649780273438,972.279602050781,7205.9091796875,2892.23950195312,2104.26538085938,3534.44946289062,2636.52001953125,2495.14331054688,2342.02807617188,3060.0576171875,6262.04931640625,370.404937744141,5881.2314453125,1790.71179199219,1549.15649414062,2406.18359375,1412.68286132812,1667.24475097656,1.74906647205353,1667.75695800781,1574.86242675781,614.688354492188,3952.89428710938,847.456298828125,1761.0615234375,1401.04895019531,1735.91101074219,223.793746948242,732.837524414062,2962.76733398438,3370.3662109375,2450.84448242188,3381.06787109375,3473.8662109375,1097.0986328125,45.8838996887207,585.91943359375,2143.30200195312,1085.08642578125,937.562133789062,1320.89123535156,869.172241210938,1455.07336425781,986.596374511719,3678.73461914062,1380.08117675781,2638.40991210938,559.614013671875,1915.00390625,740.480895996094,773.422668457031,114.489646911621,2499.44946289062
996.708740234375,596.828369140625,6664.4541015625,139.658309936523,2938.27490234375,653.832580566406,14658.3310546875,80.9296340942383,1163.57849121094,1072.66040039062,971.392822265625,20.6574630737305,139.969818115234,227.121078491211,2749.57568359375,1309.62182617188,5857.37548828125,4095.38671875,8353.2548828125,2043.96606445312,575.477416992188,3735.767578125,469.044891357422,4012.72924804688,2453.01000976562,422.37890625,78.4159317016602,1869.85900878906,2854.70825195312,75.5858688354492,12.2899370193481,5008.1494140625,166.365509033203,2187.40869140625,500.8154296875,515.318786621094,2371.59423828125,12.789288520813,1452.54663085938,1000.49713134766,1514.64538574219,1613.16381835938,170.527099609375,2900.10009765625,1376.43481445312,4.94849348068237,2946.69604492188,1214.50244140625,5182.9462890625,3237.31884765625,4155.35888671875,1531.36242675781,299.014709472656,200.074096679688,3060.72900390625,2369.67529296875,754.122497558594,246.678421020508,573.435913085938,66.3068771362305,1520.03466796875,856.130187988281,1467.80883789062,1129.77905273438,188.318099975586,3132.76953125,2115.91015625,941.242858886719,797.249816894531,1533.58239746094,2093.26806640625,2723.06689453125,2645.48828125
2741.62084960938,495.347900390625,1679.93322753906,1158.48510742188,98.8423461914062,1260.40979003906,21161.041015625,4577.3134765625,1062.5400390625,750.122863769531,1800.35510253906,1509.84350585938,848.115112304688,2257.35034179688,179.957534790039,388.86376953125,529.865478515625,279.340911865234,149.782943725586,3243.20776367188,1484.22717285156,2096.41333007812,3421.2587890625,43.181339263916,1060.79016113281,7223.37353515625,6112.59912109375,5759.96484375,244.627685546875,6404.65283203125,2348.60400390625,1189.25549316406,1703.52722167969,626.087768554688,4077.00244140625,1234.83459472656,534.244201660156,4273.8349609375,1163.69958496094,1995.92199707031,106.896415710449,876.755737304688,13549.7421875,1890.80895996094,1133.00720214844,4207.2490234375,11.8901634216309,1763.03369140625,1865.65405273438,635.494323730469,666.282104492188,5361.81640625,7467.95458984375,6789.849609375,963.251159667969,149.424285888672,860.320617675781,988.736083984375,1677.03540039062,2462.07568359375,555.517395019531,122.155601501465,444.398651123047,27.2303009033203,621.211181640625,2805.99926757812,625.360168457031,1614.07995605469,1928.63452148438,317.781860351562,154.749984741211,629.260498046875,380.513305664062
81.9525146484375,2578.90771484375,1688.82861328125,4041.92333984375,7241.74365234375,1988.20104980469,272.995300292969,19.4025440216064,1835.61401367188,2336.68676757812,16.7891807556152,1724.65966796875,638.135131835938,46.4318504333496,675.347534179688,1116.65734863281,7305.2998046875,7950.43408203125,2571.52416992188,4383.91064453125,21.806848526001,4602.50341796875,2998.68969726562,8999.90234375,7404.24853515625,1455.98266601562,604.462707519531,235.115173339844,6932.69677734375,578.050659179688,2627.0380859375,1204.21154785156,2365.15087890625,5383.86474609375,14.1038475036621,736.078796386719,1431.50048828125,29.0138835906982,186.751953125,592.557922363281,4314.33154296875,2245.85571289062,1352.3359375,768.060974121094,3707.66674804688,165.58056640625,6634.81396484375,4.11032962799072,1427.27209472656,2548.2041015625,2766.318359375,195.805786132812,1017.00402832031,1035.80017089844,5050.48388671875,799.4052734375,159.685287475586,793.680541992188,1794.0009765625,350.190063476562,1153.2978515625,3376.57495117188,1209.66821289062,3325.05786132812,1319.36901855469,1479.82482910156,4721.884765625,198.74543762207,416.668914794922,3655.9833984375,3567.68481445312,824,2377.2373046875
6657.46533203125,582.162963867188,1592.27502441406,11.2454404830933,79.8941268920898,408.383087158203,2003.12316894531,1003.34460449219,220.505065917969,43.8285331726074,3461.21557617188,642.747009277344,1155.86828613281,682.853698730469,1092.64318847656,225.811309814453,1370.9541015625,2087.83081054688,4740.35791015625,455.154754638672,3293.65063476562,4889.021484375,2496.30786132812,225.750610351562,10.775975227356,1623.14367675781,1552.07482910156,3027.44677734375,6.81993341445923,1724.41381835938,644.497802734375,2684.48071289062,0.120493486523628,89.3248138427734,1471.70129394531,1638.05285644531,762.48974609375,1204.93151855469,3844.11254882812,3446.12329101562,5.48906421661377,2374.01245117188,2948.6142578125,1801.34875488281,256.170806884766,1512.11047363281,328.597290039062,4828.17041015625,2827.66821289062,1438.26916503906,1850.03686523438,2312.55419921875,2045.69799804688,1571.74597167969,2018.74645996094,712.826965332031,2213.55810546875,746.612426757812,578.629577636719,842.055480957031,427.296051025391,0.0346042104065418,369.436981201172,260.412536621094,373.942077636719,1532.66943359375,7.13296890258789,3201.04418945312,2868.01147460938,1070.16516113281,629.331909179688,1311.23059082031,1667.66662597656
392.191802978516,5286.13818359375,360.930633544922,7338.583984375,2127.119140625,3952.43090820312,56.6356887817383,2173.44458007812,735.912353515625,1413.16235351562,382.670806884766,3279.38623046875,1378.97351074219,1054.47485351562,65.5259857177734,1392.14721679688,2556.45678710938,1991.85607910156,0.713109076023102,2554.66333007812,399.425628662109,992.978332519531,6802.52294921875,2744.85302734375,3934.724609375,3497.06762695312,2627.96948242188,2636.38671875,2614.65258789062,2719.50439453125,6597.98486328125,646.893981933594,5348.17822265625,2221.35302734375,1645.64379882812,2216.81103515625,1552.01538085938,1572.18701171875,8.57749176025391,1653.53149414062,1447.62915039062,668.797119140625,5453.21484375,743.666687011719,1690.79846191406,1483.45629882812,1866.86535644531,194.927886962891,774.926940917969,3378.96752929688,3620.7275390625,2463.48681640625,3220.07446289062,3391.9697265625,1208.63037109375,16.0815773010254,659.978271484375,2327.6259765625,964.970642089844,1001.35437011719,1526.86437988281,1385.98083496094,1833.24426269531,1123.67712402344,3431.025390625,597.128173828125,1763.82312011719,550.336669921875,1281.58557128906,895.772827148438,351.024749755859,157.58039855957,2890.01440429688
1762.19543457031,776.632202148438,3808.30297851562,138.789627075195,2898.99829101562,1669.61730957031,11.0553226470947,104.179244995117,996.103271484375,1537.2568359375,916.83984375,30.5825004577637,339.477508544922,278.265502929688,2362.33374023438,599.538513183594,4496.01708984375,4688.60498046875,8660.7861328125,1845.38293457031,1175.92419433594,3324.83959960938,521.672912597656,3971.09936523438,4919.06396484375,448.205718994141,305.826049804688,1851.19665527344,3158.34619140625,80.2468109130859,2.14650988578796,5415.29443359375,223.491775512695,2065.0322265625,480.376708984375,448.339080810547,2516.23413085938,81.5931243896484,1580.599609375,999.834106445312,1598.7734375,1598.40795898438,140.91716003418,3136.51879882812,1536.94934082031,5.09803581237793,2843.75024414062,1441.2548828125,5178.998046875,3478.16650390625,4378.93017578125,1511.94958496094,229.505065917969,389.508178710938,2972.58642578125,2205.68286132812,763.628601074219,207.442672729492,482.522644042969,51.4153709411621,1438.98266601562,809.365966796875,829.820983886719,1720.26000976562,562.106323242188,1493.46667480469,1522.67858886719,859.103210449219,664.151000976562,2233.56176757812,1808.77612304688,2010.45837402344,2803.52856445312
2013.29382324219,1622.7431640625,1023.2998046875,2044.28625488281,270.909271240234,583.307678222656,504.136474609375,6900.451171875,1216.8037109375,601.25390625,1753.50988769531,1266.63671875,1331.87854003906,3035.5546875,197.935104370117,365.641387939453,340.879180908203,779.857055664062,368.420837402344,2335.22314453125,2077.85571289062,1874.43005371094,3642.42895507812,15.261528968811,1060.38000488281,7062.7998046875,4596.48779296875,5600.6494140625,425.256713867188,5893.40283203125,2236.1064453125,1565.8857421875,1411.24548339844,782.667785644531,3872.1943359375,1395.12182617188,465.009338378906,4526.79833984375,1116.37670898438,2068.2861328125,147.915557861328,916.32568359375,5513.296875,1857.49670410156,936.2255859375,3993.74682617188,8.34955024719238,1913.17541503906,2138.9013671875,651.710693359375,794.320129394531,4960.2119140625,6838.09716796875,6773.3193359375,824.508178710938,231.572418212891,893.48193359375,995.121704101562,1179.75805664062,2645.03076171875,472.044769287109,400.398345947266,720.342834472656,7.11684370040894,1085.3935546875,2269.98852539062,341.360443115234,1681.09790039062,1210.40686035156,502.468872070312,254.849044799805,420.1376953125,582.386901855469
62.407657623291,2505.8994140625,1837.90808105469,2346.27709960938,6248.3759765625,2341.11987304688,828.44140625,115.494598388672,2127.30908203125,2637.06713867188,148.801574707031,1685.93432617188,511.348571777344,105.801406860352,846.777954101562,689.386596679688,9961.6826171875,7823.26708984375,2986.48706054688,4183.14892578125,16.3929824829102,4918.36328125,2751.658203125,8507.7314453125,8480.36328125,1311.60559082031,929.345031738281,202.741439819336,7380.7490234375,680.323608398438,3281.35180664062,1277.03198242188,2505.4755859375,5594.8349609375,55.4513053894043,991.163879394531,1420.03283691406,9.51552486419678,259.495422363281,526.909851074219,4142.51025390625,1954.9267578125,196.209945678711,776.247985839844,3909.9501953125,181.038177490234,6574.11767578125,7.50468826293945,1296.20080566406,2565.93823242188,2891.16088867188,237.981506347656,980.947265625,1224.09252929688,5734.4404296875,1044.49951171875,230.145919799805,825.677368164062,1396.27648925781,239.928573608398,1007.90008544922,2539.40576171875,943.293823242188,3821.6826171875,1118.10778808594,380.599853515625,3263.98559570312,121.496452331543,865.317016601562,3517.29663085938,3749.73095703125,721.5869140625,1759.19897460938
4249.17919921875,82.7581176757812,2486.99658203125,193.762100219727,3.16908669471741,147.37419128418,7526.35693359375,2359.22875976562,424.837768554688,7.49332523345947,2880.60498046875,549.595031738281,1685.35803222656,904.376281738281,1044.77221679688,293.686096191406,2121.8017578125,2286.61254882812,4049.984375,204.730865478516,2242.60473632812,4410.2431640625,2610.48974609375,265.998901367188,35.7194366455078,1762.14489746094,1182.54956054688,2406.72680664062,0.0082595469430089,1461.46252441406,293.503540039062,2282.64184570312,0.177527114748955,23.2252826690674,1449.08874511719,1751.88830566406,734.528076171875,1443.21264648438,3721.39086914062,3670.083984375,3.20443320274353,2495.9306640625,1714.17272949219,1657.22082519531,197.726577758789,1239.07788085938,333.571685791016,4747.69482421875,2875.88891601562,1474.955078125,1970.92590332031,1949.0498046875,1717.7373046875,1523.61926269531,2214.62084960938,1324.79870605469,1814.240234375,722.867126464844,492.0244140625,944.9072265625,422.072662353516,93.0571823120117,254.907852172852,178.953338623047,13.2724523544312,1307.61926269531,2.45222902297974,3771.80786132812,2586.15380859375,1300.640625,218.452896118164,1318.63061523438,948.582641601562
888.573425292969,6033.0068359375,275.713836669922,5622.248046875,1372.57946777344,4614.2919921875,309.993774414062,3206.92333984375,1066.45434570312,1074.93920898438,420.020965576172,3466.6923828125,1377.31298828125,434.663269042969,4.63837194442749,1447.52087402344,2379.33911132812,1996.3955078125,145.89372253418,2212.67333984375,541.212707519531,1561.93115234375,6471.21484375,2286.18041992188,2550.32983398438,3373.43896484375,2444.96728515625,2357.6640625,2554.75244140625,2861.47827148438,6666.87841796875,540.156555175781,6050.3740234375,2011.57641601562,1719.32666015625,2371.025390625,1538.52868652344,1886.20971679688,19.2814521789551,1720.89953613281,1445.57177734375,614.060424804688,2720.53344726562,997.653015136719,1541.57214355469,1392.21008300781,1881.4326171875,176.574188232422,741.451171875,3432.6728515625,2968.67211914062,2326.28662109375,3155.38061523438,3340.86767578125,1332.25280761719,8.09743595123291,633.765686035156,2177.025390625,976.827514648438,851.351623535156,1457.47875976562,1552.04150390625,2539.80249023438,1201.396484375,3120.47509765625,613.400634765625,1309.52185058594,548.831420898438,2060.509765625,478.587799072266,1004.41900634766,10.1165676116943,2658.82470703125
2070.01733398438,1030.75231933594,5134.85107421875,72.808967590332,3529.08837890625,143.966934204102,1228.48986816406,124.456825256348,949.456909179688,1599.37451171875,1152.38110351562,18.8643531799316,257.005554199219,291.836059570312,2360.31298828125,786.240905761719,4231.630859375,4930.99560546875,8835.1494140625,2777.67797851562,120.990142822266,3275.41748046875,468.747009277344,3913.193359375,2911.80859375,415.851654052734,39.1159973144531,1709.83911132812,2841.49145507812,85.7548599243164,2.46640396118164,4833.63134765625,177.411087036133,2458.44677734375,344.173034667969,566.448974609375,2424.71606445312,27.525426864624,1533.19543457031,868.399719238281,1529.23474121094,1830.79089355469,30.4660720825195,2818.13256835938,1416.75317382812,11.7486114501953,2707.98315429688,1562.32861328125,5255.3994140625,3334.7294921875,4359.1787109375,1296.39611816406,251.816070556641,351.184234619141,3104.27124023438,3108.43334960938,591.471313476562,227.759078979492,449.773040771484,65.7142105102539,1227.73852539062,662.011962890625,1334.07824707031,1575.60302734375,285.762084960938,1395.22668457031,1661.93103027344,938.384521484375,1052.00500488281,1746.88854980469,1504.81750488281,4130.57470703125,2094.25
3750.1708984375,2225.0458984375,1594.32421875,2357.62475585938,0.589535653591156,2850.46435546875,4158.8271484375,5419.056640625,1183.69421386719,749.459045410156,1569.43603515625,1142.42834472656,863.890014648438,1747.64147949219,81.9832534790039,353.232513427734,570.194030761719,1090.81909179688,267.637756347656,1567.34814453125,2798.1357421875,1989.55053710938,3172.23071289062,21.3110446929932,712.63330078125,7212.85986328125,5372.97998046875,5322.74267578125,418.580108642578,6120.35498046875,2325.6416015625,1620.51025390625,1797.2099609375,503.557037353516,4266.67919921875,1434.75610351562,468.846527099609,4363.78515625,1172.73645019531,2054.13134765625,166.32746887207,680.610290527344,7471.92529296875,2379.9013671875,907.300170898438,4202.9560546875,2.94272589683533,1856.98254394531,2173.71557617188,770.912475585938,580.721008300781,5244.6640625,7142.28076171875,6931.8974609375,928.8837890625,168.167251586914,936.679992675781,965.959289550781,1467.82458496094,2672.51416015625,561.359436035156,444.236297607422,952.049377441406,0.807341396808624,1235.46179199219,1717.36669921875,504.6044921875,1546.44909667969,1663.41430664062,622.255981445312,128.415298461914,563.2021484375,656.075378417969
272.056915283203,2595.28271484375,1249.5205078125,3117.67749023438,7878.62939453125,1836.41564941406,277.186614990234,48.7696533203125,3023.29272460938,2518.32275390625,93.6870803833008,1903.22253417969,746.770568847656,147.074249267578,600.236083984375,680.902099609375,7746.28173828125,6790.42041015625,2312.3193359375,5165.123046875,171.240005493164,4168.80810546875,2747.8544921875,9022.8623046875,6939.603515625,1383.4853515625,742.005859375,308.557708740234,6890.51123046875,487.543670654297,2657.30639648438,1523.75439453125,2786.01782226562,5247.693359375,9.26829528808594,836.924072265625,1717.78918457031,19.8546981811523,185.033294677734,736.977600097656,4587.9384765625,2397.0322265625,322.481964111328,789.59619140625,3902.69311523438,178.605834960938,6366.8681640625,0.00733144907280803,1235.98901367188,2553.90063476562,2963.59790039062,182.364471435547,1177.72180175781,924.427429199219,5328.58447265625,1137.28063964844,237.767395019531,792.074157714844,1442.61950683594,375.938507080078,1110.90026855469,2154.57788085938,1180.34912109375,4166.42333984375,1455.42175292969,314.253997802734,3648.51586914062,73.8624420166016,521.590270996094,3209.421875,4284.7509765625,1309.02807617188,1642.81970214844
5928.7685546875,10.3919219970703,2616.86328125,235.257553100586,147.488265991211,0.846503555774689,3213.72338867188,1024.51696777344,213.715255737305,88.7229232788086,3933.732421875,299.037078857422,1059.71899414062,1034.27563476562,1070.37976074219,563.333435058594,1218.50622558594,5541.7978515625,3771.99536132812,182.907760620117,4563.65869140625,5427.3955078125,2886.95703125,161.001480102539,23.6774520874023,1884.619140625,1609.1953125,2578.63696289062,4.97860336303711,2103.79931640625,700.871520996094,2931.05493164062,10.3044309616089,22.043327331543,1445.89697265625,1733.02648925781,1009.07769775391,1220.62622070312,3762.29321289062,3259.5673828125,0.903385102748871,2440.74169921875,1721.58447265625,1977.39343261719,208.370498657227,1664.96118164062,323.164337158203,4827.318359375,2861.73461914062,1791.85107421875,1831.78210449219,2242.0888671875,1782.978515625,1728.873046875,2238.30419921875,1317.62158203125,2343.31176757812,923.760375976562,521.708374023438,908.934753417969,433.129119873047,11.0888137817383,404.860321044922,177.064880371094,17.7849063873291,1406.07775878906,28.6262645721436,3264.48681640625,2441.12573242188,1165.45617675781,555.042663574219,1422.47766113281,1104.84899902344
201.636260986328,4534.568359375,307.199340820312,5721.134765625,1841.6240234375,5496.73486328125,120.561622619629,3297.65112304688,1931.98010253906,1309.76989746094,155.25764465332,3469.29833984375,1719.54272460938,670.547485351562,11.3806991577148,1139.69213867188,2371.90966796875,183.588836669922,15.4238519668579,3203.48559570312,353.553588867188,964.349792480469,7092.50341796875,2809.10595703125,2543.65161132812,3661.83618164062,3351.10180664062,2479.79907226562,2287.6083984375,2910.9306640625,6091.31103515625,387.561096191406,6205.0859375,1969.35290527344,1681.87561035156,2303.98754882812,1638.35986328125,1552.56665039062,1.44501352310181,1653.7099609375,1355.21044921875,560.301208496094,2857.52685546875,726.460571289062,1721.34020996094,1374.296875,1875.51171875,211.219650268555,887.527099609375,2877.65185546875,3577.67065429688,2312.82495117188,3664.78881835938,2543.61328125,1160.853515625,5.97731018066406,677.194702148438,2143.1201171875,967.472229003906,925.86279296875,1842.60534667969,1076.10668945312,1098.59582519531,967.467834472656,2432.93359375,551.863952636719,1124.4189453125,219.408721923828,1882.68041992188,960.095886230469,938.181762695312,270.185455322266,2399.02197265625
1684.83532714844,956.369873046875,5419.14892578125,18.5979804992676,3383.69091796875,1434.30786132812,1281.99279785156,64.4543838500977,1056.67150878906,951.20751953125,843.110107421875,0.21573606133461,117.261840820312,416.592224121094,2707.21411132812,1206.935546875,2599.376953125,7679.1904296875,7695.26025390625,1602.54284667969,741.159118652344,3520.39086914062,676.193542480469,3796.36987304688,2937.4892578125,499.205505371094,44.6658477783203,1604.72180175781,2646.89770507812,8.57995700836182,32.454906463623,5130.10986328125,237.979476928711,2181.3359375,364.813720703125,496.047302246094,2703.720703125,65.7938919067383,1469.45397949219,850.773071289062,1565.83740234375,2334.17407226562,2.11547660827637,2884.76196289062,1376.70959472656,1.49556636810303,2790.66845703125,1366.98718261719,4497.853515625,3447.24829101562,4602.150390625,1421.17150878906,331.790802001953,362.950225830078,3043.55444335938,2843.1005859375,744.870971679688,443.336975097656,486.643157958984,125.632545471191,1523.21301269531,880.733825683594,1078.91943359375,1829.19689941406,140.210983276367,1971.63452148438,1814.57922363281,906.446411132812,757.165649414062,2220.044921875,1917.8037109375,1333.49975585938,2248.5107421875
3684.38549804688,2286.966796875,1312.16821289062,2348.33154296875,42.7878913879395,1043.89892578125,3701.427734375,6714.953125,1443.81237792969,591.435302734375,2012.38305664062,984.409912109375,1364.14111328125,1894.27429199219,116.240386962891,409.509826660156,197.814605712891,1452.28491210938,220.032043457031,3464.92797851562,1833.0205078125,2011.021484375,3502.32080078125,45.876220703125,871.355651855469,7481.69189453125,5532.4599609375,6350.291015625,323.529815673828,6695.50634765625,2102.68872070312,1367.04809570312,1871.12744140625,627.4453125,4327.1005859375,1450.669921875,370.056579589844,4618.060546875,1189.81811523438,2003.46081542969,80.0768890380859,1097.42333984375,6347.43115234375,1828.73974609375,1127.31323242188,3984.06689453125,5.59870481491089,1938.22790527344,2003.21020507812,795.242858886719,671.851623535156,5250.68359375,6906.220703125,5993.1826171875,1022.50457763672,102.286735534668,936.757995605469,870.244506835938,1490.93505859375,2293.49487304688,521.227600097656,478.022094726562,256.094787597656,117.92057800293,274.526336669922,1177.18688964844,229.458435058594,1264.01916503906,1754.88427734375,271.625701904297,152.159149169922,786.561157226562,652.1181640625
18.1448764801025,3466.00830078125,1536.14697265625,2569.0009765625,7366.41845703125,3740.572265625,148.158325195312,187.881607055664,2431.03491210938,1983.77026367188,86.8256530761719,1557.40881347656,1199.10827636719,61.4126396179199,1099.6298828125,816.281372070312,7818.1689453125,8181.48779296875,2752.85522460938,3673.48706054688,85.2898712158203,4287.52587890625,3072.58349609375,8778.5986328125,6886.31396484375,1622.0517578125,461.144195556641,189.975448608398,7123.7568359375,641.988708496094,2698.509765625,1391.01818847656,2217.31713867188,5163.88818359375,3.65323328971863,812.275207519531,1517.15185546875,7.37904977798462,228.945999145508,631.055236816406,4023.830078125,2701.99340820312,146.998840332031,778.510131835938,3709.29663085938,198.491683959961,6072.8447265625,5.93553352355957,1023.74096679688,2374.66381835938,3312.14331054688,145.510162353516,1035.12963867188,1238.658203125,5378.974609375,851.591979980469,294.430236816406,506.560760498047,1532.53210449219,447.472412109375,1113.41809082031,2259.64233398438,1081.37915039062,4487.7099609375,649.708984375,637.412170410156,4443.61181640625,121.982864379883,689.304260253906,4019.84033203125,4131.77587890625,83.2481842041016,1913.17211914062
5530.58740234375,65.5630798339844,3190.80688476562,338.430908203125,1.42286574840546,348.595031738281,7155.41845703125,1678.13720703125,173.416595458984,7.20526504516602,3202.44580078125,474.537200927734,1472.61804199219,438.167663574219,857.926635742188,211.100082397461,1576.10583496094,440.479675292969,4549.56982421875,958.98291015625,3471.49291992188,4994.21435546875,2442.474609375,155.903823852539,58.1223945617676,1801.73669433594,1400.06188964844,3324.25732421875,0.183140695095062,1714.08203125,431.673828125,2652.75170898438,13.2504386901855,25.9679698944092,1472.05920410156,1980.90698242188,1026.38879394531,1646.6513671875,3673.05712890625,3751.23779296875,5.19283151626587,2399.47338867188,2197.22485351562,1834.29174804688,424.140258789062,1332.52844238281,346.975311279297,4641.41259765625,2667.25805664062,977.978759765625,2032.76098632812,2494.88061523438,1723.89868164062,1686.63366699219,2227.35034179688,1040.29724121094,2349.33984375,789.143371582031,563.64599609375,767.593566894531,605.653625488281,13.2718391418457,288.443023681641,315.455902099609,183.825073242188,1128.91918945312,19.3441257476807,3466.54321289062,2629.97314453125,955.138549804688,281.903289794922,1404.57055664062,968.232727050781
256.770843505859,4581.69580078125,884.04345703125,6266.97412109375,2722.28271484375,4729.8759765625,117.729316711426,944.151184082031,1831.38415527344,1405.63037109375,155.24072265625,3230.20190429688,1834.4326171875,427.651062011719,117.440032958984,1138.62609863281,2620.97802734375,2450.29345703125,27.2101936340332,3186.83984375,302.135589599609,1094.8251953125,8380.427734375,2603.84936523438,2275.755859375,3289.0751953125,2424.57958984375,2485.7822265625,2561.5537109375,3168.8623046875,6367.6875,375.028472900391,6202.1259765625,2006.25317382812,1860.69885253906,2253.390625,1672.26257324219,1638.70544433594,9.48374271392822,1735.0419921875,1476.90563964844,627.119262695312,3380.830078125,825.330261230469,1793.44067382812,1598.84326171875,1667.05786132812,165.682952880859,770.533874511719,3813.328125,3360.46923828125,2609.12890625,3286.02978515625,3287.55493164062,1394.46508789062,3.42699599266052,753.138488769531,1857.27453613281,1025.69311523438,960.659118652344,1435.93591308594,1029.9091796875,2259.6455078125,1488.77331542969,2725.15283203125,749.921813964844,1471.55517578125,472.24609375,2078.32055664062,1001.33880615234,1155.40368652344,368.372589111328,3407.96215820312
1277.95202636719,506.063079833984,5340.7021484375,198.110900878906,1774.75671386719,707.678344726562,834.967224121094,64.3323364257812,1243.81176757812,1026.95446777344,453.885406494141,22.5300998687744,333.240386962891,246.318130493164,1905.40783691406,814.905578613281,5597.7939453125,2408.30444335938,8174.6904296875,1651.20617675781,722.340393066406,3485.35009765625,549.09521484375,3850.068359375,2975.95874023438,475.45703125,36.214656829834,1762.66149902344,2708.28637695312,69.7025985717773,4.23244142532349,5260.50537109375,232.514572143555,2077.82690429688,225.681060791016,659.629272460938,2648.11352539062,81.2537078857422,1388.75183105469,977.833068847656,1337.44213867188,1628.99890136719,14.4978160858154,3135.78686523438,1064.46130371094,5.70355749130249,3010.2998046875,1373.29748535156,5058.55712890625,3522.95654296875,4332.6650390625,1702.79382324219,273.285369873047,294.10986328125,2849.34790039062,2963.07177734375,813.180603027344,304.273376464844,396.145111083984,96.7190246582031,1328.88171386719,1309.80493164062,756.811889648438,1525.50134277344,353.096099853516,1749.95971679688,2234.77758789062,923.673095703125,593.968322753906,1883.14489746094,1431.06164550781,2758.19091796875,2794.55712890625
2837.88916015625,933.809692382812,2855.67407226562,1961.6396484375,432.942474365234,953.907043457031,2454.05590820312,2801.91650390625,1568.71044921875,1309.91455078125,1476.45092773438,1146.5634765625,848.855102539062,1395.26342773438,0.539197564125061,308.279296875,749.339538574219,217.565475463867,441.388214111328,3255.70874023438,2199.68701171875,1852.45483398438,4474.8232421875,30.7517166137695,464.493072509766,6743.96533203125,5195.15283203125,5555.34521484375,317.689025878906,6211.37548828125,2261.71630859375,1398.99377441406,1769.14318847656,695.406311035156,4099.6240234375,1553.60607910156,559.336120605469,4350.68505859375,1315.75756835938,1923.34057617188,215.902969360352,854.358947753906,7236.9541015625,2199.3232421875,1184.98791503906,4261.06787109375,9.89569854736328,1897.59533691406,2025.00756835938,754.992004394531,617.658630371094,5104.81103515625,7118.29736328125,6799.423828125,672.885131835938,63.3852272033691,990.631103515625,748.710144042969,1506.9453125,2624.14819335938,578.7734375,460.966125488281,709.673583984375,10.1219234466553,1082.03991699219,2572.02197265625,471.601531982422,1846.2607421875,1480.39270019531,255.145401000977,25.4929237365723,772.903991699219,795.403015136719
23.639289855957,3245.61352539062,1611.84558105469,3449.40649414062,6505.5009765625,2285.97290039062,61.2701187133789,91.0979080200195,1702.859375,1926.78942871094,287.340087890625,2355.26196289062,697.441223144531,64.7397994995117,412.176391601562,893.357543945312,9969.62890625,8802.23828125,1591.29760742188,5078.759765625,138.517669677734,4338.58984375,2538.08520507812,8781.7197265625,7095.66650390625,1653.98083496094,522.876342773438,102.634063720703,6613.51318359375,504.543060302734,2780.36669921875,1288.60363769531,2429.94458007812,4747.82861328125,3.70885372161865,894.490234375,1459.27185058594,22.7070178985596,126.521453857422,551.75634765625,4660.20263671875,2383.38500976562,230.875671386719,846.032897949219,3770.04321289062,229.15608215332,6741.005859375,8.20227909088135,1254.52221679688,2757.91455078125,2898.38256835938,282.663360595703,1248.56323242188,1270.69140625,5522.4384765625,1011.18536376953,409.571502685547,776.399658203125,1210.98388671875,419.845397949219,981.438415527344,2490.43432617188,699.79931640625,3882.51879882812,1608.51379394531,286.491180419922,3239.599609375,52.2370300292969,846.601989746094,3696.15576171875,4198.34814453125,326.904266357422,2114.056640625
4807.62158203125,123.303283691406,4023.13354492188,158.915664672852,38.0136642456055,223.509536743164,5669.97802734375,1126.95153808594,195.815505981445,76.7518920898438,3831.85961914062,200.218032836914,1052.31188964844,814.406433105469,1028.2216796875,357.391204833984,2104.19287109375,1969.06713867188,3802.90112304688,266.966125488281,4388.6943359375,4885.90673828125,2948.6650390625,176.703369140625,20.9530906677246,2041.85021972656,1270.57861328125,2587.30200195312,1.7882844209671,1644.23742675781,476.975677490234,2514.0654296875,22.4647369384766,21.5660152435303,1672.18640136719,1901.01977539062,771.264770507812,1384.13208007812,4139.86865234375,3583.89379882812,3.72641754150391,2251.86352539062,2155.23706054688,1918.04064941406,215.552032470703,1621.0849609375,396.94775390625,4924.26318359375,2832.32592773438,1951.31262207031,1867.54016113281,2117.12133789062,1642.92163085938,1759.29943847656,2162.318359375,1163.12292480469,2302.50610351562,608.213989257812,585.577087402344,1006.14422607422,378.066467285156,124.822341918945,363.907165527344,225.211196899414,74.8726272583008,1869.72277832031,97.4486389160156,5416.48681640625,2307.20849609375,886.487915039062,163.74528503418,1363.06652832031,1042.23474121094
267.755981445312,5125.15478515625,54.5549011230469,6511.611328125,2294.64086914062,4882.93798828125,296.590850830078,2519.28686523438,434.231201171875,981.13525390625,708.05224609375,4237.80224609375,2278.71630859375,1193.99536132812,22.0250835418701,1445.83251953125,1997.00402832031,1956.82067871094,253.695724487305,2835.90673828125,453.748809814453,1088.12902832031,6866.77880859375,2460.65869140625,2941.783203125,4144.72900390625,2718.9287109375,2465.59912109375,2293.056640625,2995.67431640625,6544.2607421875,470.607299804688,5182.68505859375,1810.20935058594,1487.11791992188,2665.72045898438,1542.49365234375,1793.16174316406,0.245348915457726,1496.119140625,1784.4755859375,635.526000976562,3549.4697265625,661.269165039062,1762.54357910156,1965.00903320312,1828.955078125,242.563064575195,796.125732421875,2647.26586914062,3314.27416992188,2311.25048828125,3586.18017578125,3355.16137695312,1343.21789550781,29.9748668670654,1096.84692382812,2211.212890625,900.872009277344,1154.38220214844,1730.3798828125,771.979064941406,1501.03479003906,1363.08288574219,3780.49536132812,860.643676757812,1226.3408203125,275.864501953125,1797.40954589844,772.687133789062,1077.01513671875,603.943481445312,2566.40307617188
949.427795410156,1297.43518066406,6535.35791015625,32.2490997314453,3278.474609375,676.769592285156,1932.49658203125,32.7388343811035,850.220703125,1364.59814453125,665.598999023438,16.9699001312256,261.254028320312,472.794891357422,2562.46264648438,941.276123046875,3490.5849609375,4461.30859375,8187.517578125,2513.99462890625,926.724853515625,3940.662109375,520.090759277344,3651.73193359375,2541.79028320312,260.114349365234,108.603370666504,1807.59130859375,2422.23266601562,100.429214477539,3.19081544876099,4902.76025390625,287.100372314453,2610.83081054688,448.170440673828,559.664306640625,2451.6630859375,46.4105072021484,1537.39233398438,1174.06457519531,1433.01513671875,1667.66882324219,57.8478050231934,2920.0673828125,1566.77795410156,2.84746670722961,3003.55004882812,1333.21447753906,4963.267578125,3567.0576171875,4277.8330078125,1427.57043457031,329.057769775391,299.880187988281,3152.79321289062,2967.99682617188,674.635375976562,274.678741455078,586.795593261719,210.054260253906,1396.04467773438,850.400268554688,1098.78527832031,1047.71264648438,499.959655761719,1636.87072753906,3945.39770507812,2091.52734375,1034.99548339844,1788.828125,1396.78283691406,2220.71997070312,1816.52478027344
3156.76000976562,885.820434570312,750.356689453125,3131.58544921875,196.883316040039,854.42919921875,376.211242675781,5302.21142578125,936.449645996094,608.575378417969,1985.23400878906,1132.36987304688,1362.18725585938,2564.97705078125,104.886558532715,426.810455322266,483.927734375,766.513061523438,94.8320770263672,1855.42639160156,1663.75451660156,2168.65576171875,3356.80688476562,58.720458984375,1048.35546875,7658.32763671875,5197.2490234375,4568.98291015625,339.029235839844,6609.67578125,2369.16796875,1378.42651367188,1869.31970214844,606.367980957031,3503.71826171875,1700.51025390625,524.676025390625,4539.44921875,1028.64440917969,2182.79370117188,194.069458007812,936.113525390625,7585.75732421875,1716.47021484375,1052.7646484375,4791.81103515625,7.7743616104126,1820.71374511719,2122.53369140625,611.63134765625,649.696044921875,5527.13720703125,7354.78564453125,6520.32958984375,1046.533203125,276.324920654297,1027.30322265625,969.735778808594,1383.04345703125,3261.08032226562,493.858673095703,181.679946899414,696.858642578125,19.4164638519287,1494.97583007812,1776.9091796875,833.526306152344,1569.42639160156,1735.58703613281,378.172912597656,147.009887695312,456.440307617188,744.163146972656
20.0188941955566,4259.4375,2757.63891601562,2746.52783203125,6266.07421875,1749.94787597656,329.341064453125,127.328254699707,2095.92944335938,1934.59973144531,197.300979614258,1807.93969726562,407.542083740234,45.1444396972656,597.011779785156,819.814697265625,10199.5546875,7569.94921875,2892.46875,3875.03784179688,49.7337989807129,4760.99072265625,2887.53588867188,8512.7216796875,6910.7373046875,1216.98864746094,582.340637207031,316.615875244141,6984.94091796875,683.288513183594,2678.36572265625,1378.19201660156,2687.57348632812,5522.6865234375,0.480770766735077,776.828369140625,1540.78051757812,37.3440437316895,149.805252075195,664.575073242188,4255.26904296875,2341.09838867188,127.53540802002,801.532653808594,3867.85693359375,292.847625732422,6518.50732421875,9.34255313873291,1253.51171875,2505.966796875,2985.716796875,159.451431274414,1260.29797363281,1229.03784179688,4901.1611328125,941.150512695312,399.634399414062,638.098815917969,1761.01257324219,1265.90942382812,866.93701171875,3207.81201171875,1159.80798339844,3090.65747070312,1556.025390625,303.047454833984,14257.572265625,92.7599182128906,794.168640136719,3706.458984375,4422.57568359375,614.214416503906,1365.33728027344
3575.5458984375,163.271484375,2443.82836914062,81.7856826782227,23.6059665679932,540.622741699219,4192.9638671875,2416.0625,293.586334228516,65.5365371704102,3569.62084960938,418.876983642578,759.466125488281,620.184387207031,1131.52331542969,449.150085449219,1435.44079589844,2114.38110351562,3871.88720703125,259.33642578125,3764.97705078125,5268.48486328125,2230.767578125,97.598388671875,61.8944854736328,1786.66101074219,1210.72424316406,2218.04370117188,8.90596580505371,1526.23657226562,535.443786621094,2751.28076171875,0.917914211750031,27.6022529602051,1071.88195800781,1696.708984375,753.281616210938,1437.48767089844,2865.49047851562,3831.6025390625,3.89871501922607,2162.84155273438,1715.66235351562,1794.05908203125,251.315719604492,1350.12744140625,358.660552978516,4499.47705078125,2836.99560546875,1294.22937011719,1858.12292480469,2479.97314453125,2178.88525390625,1575.11279296875,2359.14672851562,1148.36584472656,2189.0078125,923.539978027344,479.496276855469,1438.29260253906,536.194702148438,1.24728524684906,241.63720703125,87.5544586181641,7.22086715698242,1439.12048339844,14.2219762802124,3805.91064453125,3133.53173828125,684.990783691406,394.823364257812,530.644409179688,921.989318847656
610.554931640625,6069.69189453125,0.0549438782036304,4686.5615234375,2739.08471679688,3681.712890625,34.249885559082,2754.83032226562,1519.5390625,768.326904296875,647.339782714844,3373.40087890625,1251.14904785156,918.27734375,0.0003305344725959,1068.6337890625,4160.9013671875,1595.58349609375,4.25949048995972,2308.88354492188,391.705139160156,1040.54040527344,7532.22900390625,2303.20092773438,2899.083984375,3312.43017578125,2295.10522460938,2477.11743164062,2503.4619140625,2857.13623046875,6529.138671875,508.194549560547,5877.1337890625,1902.11730957031,1696.30053710938,2088.83642578125,1631.71447753906,1624.07702636719,4.19005537033081,2107.56103515625,1745.83410644531,848.29052734375,2936.81518554688,794.440551757812,1702.01953125,1439.47302246094,1895.91369628906,168.28239440918,635.171630859375,3325.28344726562,3418.21923828125,2488.83081054688,4029.8173828125,3465.08935546875,1061.8935546875,1.13733744621277,847.231018066406,2154.16064453125,1052.49682617188,1649.41784667969,1438.87048339844,1801.28686523438,1646.95043945312,1240.54516601562,3301.42431640625,572.84130859375,5801.62109375,745.992858886719,3629.7734375,1104.13049316406,1259.11779785156,166.652236938477,2630.20629882812
240.173400878906,458.769012451172,4574.380859375,1168.66418457031,4405.95849609375,808.197998046875,3089.0517578125,375.312713623047,1631.61486816406,988.004272460938,685.958374023438,38.9327697753906,108.094306945801,271.4560546875,2892.67236328125,1207.62768554688,4169.28466796875,4604.40478515625,10756.921875,1851.61401367188,842.92333984375,3406.06518554688,397.144012451172,3848.67626953125,2646.14453125,404.275115966797,30.1062641143799,1870.35302734375,3188.26904296875,225.762786865234,1.82236969470978,4961.3154296875,504.559936523438,2323.90893554688,317.205383300781,373.958587646484,2251.97973632812,55.0908393859863,1237.19018554688,787.375549316406,1325.59753417969,1606.38061523438,0.291323930025101,2978.02172851562,1411.28479003906,1.4692223072052,3051.55859375,1511.8701171875,4604.0517578125,3214.669921875,4464.7470703125,1552.48095703125,185.589981079102,398.688201904297,2924.75463867188,2895.986328125,815.528137207031,362.127868652344,398.233551025391,36.1375389099121,1337.12158203125,1472.88916015625,1141.54321289062,1615.18200683594,238.062103271484,1793.51586914062,2553.76000976562,987.257263183594,959.907531738281,1621.86071777344,1449.89135742188,1667.8984375,2430.41162109375
6121.6025390625,1967.32434082031,1029.96008300781,820.064697265625,586.389587402344,1152.07556152344,2296.55981445312,5731.43310546875,1210.27197265625,712.174011230469,2589.30102539062,1209.63952636719,1780.94409179688,1563.80541992188,72.1114501953125,295.332611083984,904.049926757812,719.36279296875,386.209899902344,2580.47509765625,1694.0048828125,1787.48181152344,3994.4287109375,0.34904870390892,616.171264648438,7213.69873046875,5014.25439453125,5881.66796875,265.369110107422,6141.8623046875,2479.7958984375,1426.19921875,1249.53503417969,563.759033203125,3626.95629882812,1286.98657226562,498.631103515625,3853.95922851562,1173.86328125,2083.82592773438,337.978851318359,648.231872558594,6406.224609375,1988.82434082031,1085.87951660156,3905.943359375,2.46232748031616,2022.96594238281,1666.76599121094,683.913330078125,639.295043945312,5311.65966796875,7302.49072265625,6533.1708984375,820.53857421875,101.641777038574,984.244262695312,945.790222167969,1649.44982910156,1790.78991699219,878.966491699219,739.946716308594,330.168182373047,1.2820166349411,981.487243652344,1386.30749511719,666.808898925781,1785.30847167969,2689.138671875,314.664825439453,142.18017578125,503.247894287109,682.479370117188
15.6491050720215,2596.56372070312,1451.18469238281,5435.25390625,7693.17529296875,1400.12292480469,330.747009277344,21.7836780548096,3507.04638671875,2483.46704101562,80.8755569458008,1293.0224609375,377.234191894531,172.355758666992,741.117248535156,767.315185546875,8304.5341796875,7593.54150390625,2082.576171875,4632.95458984375,107.145668029785,4451.34375,2616.61303710938,8828.9404296875,5603.79248046875,1369.47229003906,252.131484985352,334.570739746094,7606.0390625,1003.84033203125,2826.16528320312,1133.06872558594,2835.81030273438,5365.1904296875,31.3305206298828,794.630859375,1371.96276855469,34.750804901123,282.488433837891,774.628967285156,4091.45239257812,2578.13452148438,119.908096313477,729.5986328125,3769.18408203125,122.886276245117,6455.5556640625,0.000779058202169836,979.067260742188,2171.52612304688,3198.9189453125,236.129119873047,1110.71508789062,1265.63061523438,5300.82568359375,801.430603027344,410.387084960938,689.441772460938,1433.25598144531,525.004333496094,1268.10607910156,3110.64477539062,1269.7060546875,3918.32861328125,1635.63635253906,492.997650146484,4305.07373046875,103.33024597168,633.022399902344,3691.80883789062,3732.42822265625,442.697204589844,1545.72583007812
12490.7666015625,1.26679682731628,4459.68359375,2.20896148681641,0.209547504782677,13.0467662811279,5466.79345703125,1674.18994140625,137.493789672852,120.137489318848,4517.4384765625,548.180786132812,2166.68432617188,191.741638183594,1155.67211914062,184.644927978516,3652.76342773438,1544.94812011719,3263.81396484375,276.343200683594,3043.27954101562,4253.92822265625,2700.30541992188,226.652862548828,0.472382545471191,1967.66442871094,1735.44494628906,2489.13647460938,3.6054949760437,1577.71813964844,479.820281982422,2287.28295898438,3.98044323921204,26.4452857971191,1499.96887207031,1751.46520996094,943.313171386719,1228.52465820312,3962.82495117188,3325.8125,10.8933391571045,2343.47094726562,1535.82250976562,1847.38366699219,242.21061706543,1557.50732421875,302.983642578125,5303.13330078125,2570.46606445312,1326.27258300781,1990.13793945312,2611.16845703125,1657.40747070312,1531.7236328125,2185.1376953125,1001.30670166016,2787.33032226562,746.598571777344,674.426025390625,411.357177734375,285.400115966797,109.393486022949,470.824554443359,185.868911743164,26.2053279876709,1582.61157226562,157.886123657227,3703.54077148438,2363.40209960938,738.449768066406,388.656188964844,701.301879882812,915.455444335938
212.538864135742,6281.16943359375,49.7223510742188,6728.2822265625,834.998413085938,3771.62377929688,70.7676239013672,1628.77758789062,1397.58703613281,1455.55859375,189.090301513672,2620.5234375,698.926574707031,451.833862304688,0.875991761684418,1227.59448242188,2268.15795898438,1705.40576171875,37.9556922912598,3023.7236328125,76.4559555053711,1365.33947753906,6513.51904296875,2552.607421875,1929.02014160156,3519.41040039062,2208.82397460938,2093.48974609375,3290.91455078125,3194.82055664062,6129.1796875,504.308837890625,5334.8662109375,1994.24951171875,1722.50805664062,1877.013671875,1594.927734375,1769.87170410156,3.22517204284668,1515.68811035156,1521.04016113281,877.471252441406,3004.25659179688,860.410705566406,1596.17321777344,1562.02978515625,1716.50598144531,214.094970703125,850.453308105469,3052.12158203125,3303.978515625,2215.03442382812,3660.22680664062,3149.60717773438,1161.69458007812,36.2322578430176,1427.45056152344,2164.16821289062,1161.77673339844,1251.78112792969,1880.55480957031,1128.49951171875,1855.40612792969,1559.77331542969,3211.24267578125,429.758178710938,1420.07336425781,382.3955078125,1834.25354003906,600.181396484375,1127.49719238281,174.850723266602,2199.13525390625
3258.92919921875,715.924072265625,7010.46044921875,111.3466796875,1948.48168945312,352.759704589844,1079.92175292969,57.7650947570801,1239.12353515625,1041.37365722656,819.273132324219,98.9158401489258,281.449188232422,117.969337463379,2291.31396484375,949.541198730469,4999.3017578125,3840.7509765625,8685.14453125,1951.51647949219,1056.3330078125,3247.447265625,461.084625244141,3760.59057617188,2299.60205078125,333.768371582031,8.66343784332275,1566.57080078125,2966.771484375,128.281799316406,0.982362389564514,5016.955078125,136.064697265625,2265.67529296875,452.875518798828,540.431945800781,2834.63305664062,63.755126953125,1490.96569824219,956.545532226562,1730.74621582031,1776.52868652344,3.62164449691772,3172.83325195312,1400.16149902344,4.54497957229614,2744.1796875,1429.85498046875,5017.4013671875,3223.74267578125,4295.8359375,1757.71105957031,244.675216674805,253.471786499023,3076.67211914062,2593.34887695312,1233.64208984375,278.23583984375,479.912780761719,77.6790161132812,1270.94897460938,767.8505859375,986.273681640625,1534.22424316406,275.81005859375,2294.091796875,893.473754882812,962.824462890625,668.93310546875,752.906555175781,1144.68115234375,1769.84155273438,2115.60522460938
3969.66821289062,1487.82385253906,865.935180664062,1904.61962890625,52.470085144043,1524.7060546875,1676.37646484375,3547.59741210938,783.144348144531,877.813903808594,1569.26708984375,876.196472167969,586.758483886719,1889.94311523438,4.11945581436157,560.626403808594,211.705001831055,515.927124023438,17.9736194610596,2888.09838867188,501.282348632812,1697.35925292969,3569.38842773438,59.923282623291,1292.2646484375,6947.998046875,5142.41259765625,4959.3251953125,542.527587890625,6016.4951171875,2221.52709960938,1581.1611328125,1472.99133300781,587.859069824219,4064.37084960938,1340.15869140625,470.858245849609,4079.478515625,1383.16381835938,1670.96960449219,206.271545410156,614.0712890625,7232.6943359375,2140.92822265625,1106.75817871094,4125.744140625,2.18539309501648,1911.50988769531,2063.5830078125,798.812805175781,600.21923828125,4976.9873046875,7541.57080078125,6556.25244140625,1010.71221923828,142.618179321289,1451.46130371094,989.803283691406,1422.88256835938,2638.90625,670.589965820312,237.944778442383,673.123718261719,69.247314453125,788.190673828125,1425.04809570312,436.308166503906,1316.65966796875,1553.68969726562,686.373107910156,57.9929428100586,489.945556640625,582.522155761719
42.0670356750488,3021.89233398438,1365.49426269531,1377.22412109375,5819.9931640625,2649.71704101562,16.4442653656006,79.9095916748047,2578.482421875,3106.17822265625,258.81640625,1359.07678222656,675.750610351562,208.819747924805,499.182312011719,1864.50354003906,9869.50390625,9346.8095703125,3322.974609375,4121.21044921875,0.42626678943634,4457.08544921875,2691.94067382812,9246.0712890625,5948.408203125,1189.60632324219,494.017974853516,407.486267089844,7034.046875,595.589599609375,2689.12573242188,1385.09533691406,2439.62084960938,5594.4345703125,14.328857421875,913.348876953125,1490.66442871094,54.237377166748,171.043258666992,556.669616699219,4589.31494140625,2184.53515625,251.180587768555,898.728332519531,3727.66845703125,235.987396240234,6387.7705078125,19.8680171966553,1167.61853027344,2642.22338867188,2968.556640625,211.251251220703,1146.30871582031,1037.79809570312,5158.69970703125,983.29833984375,283.578735351562,756.437072753906,1336.68054199219,335.358703613281,805.318908691406,2091.89306640625,850.887451171875,4344.01708984375,1283.76525878906,394.390075683594,3841.05541992188,135.651977539062,648.016357421875,2422.97290039062,2927.04272460938,719.384399414062,1584.84252929688
6869.2734375,300.583526611328,3338.07250976562,264.266357421875,1.86067700386047,40.5570831298828,2663.00390625,1605.6806640625,48.7511978149414,68.2716903686523,3978.47485351562,227.367965698242,1249.83251953125,871.328063964844,504.163818359375,291.463684082031,1210.52380371094,2048.07446289062,5024.7666015625,695.560241699219,2356.060546875,4984.55908203125,2816.34985351562,180.97200012207,245.458984375,1687.0556640625,1154.11047363281,2748.39575195312,12.095871925354,1826.37023925781,513.310302734375,2627.72705078125,0.357627093791962,5.31585693359375,1349.93737792969,1850.56750488281,767.34033203125,1080.6201171875,3631.37451171875,3722.15698242188,10.3668508529663,1980.20690917969,1979.73193359375,1846.66357421875,332.126312255859,1286.84265136719,294.111175537109,4501.638671875,2796.68920898438,1448.50329589844,1891.32189941406,2326.21020507812,1794.72973632812,1633.51843261719,2203.7431640625,1043.60192871094,2340.13989257812,840.585998535156,521.478210449219,886.836975097656,189.240951538086,0.446645557880402,29.1511745452881,132.539077758789,20.5454425811768,1287.82263183594,19.8829326629639,3333.732421875,2175.12329101562,1153.20092773438,366.235015869141,1215.79504394531,997.960266113281
320.00390625,5223.50390625,325.078033447266,2955.0810546875,3362.06787109375,6172.8095703125,845.72705078125,1983.7998046875,1404.22595214844,2384.79296875,352.917938232422,2696.79150390625,1507.75659179688,398.299835205078,2.6542112827301,2425.68237304688,2261.70654296875,2376.1494140625,7.40890455245972,4412.310546875,291.3583984375,1039.94470214844,6603.75341796875,2626.53759765625,3023.56225585938,3409.02416992188,2433.390625,1671.83862304688,2201.31372070312,2627.43481445312,6264.466796875,571.8583984375,5909.111328125,2217.41235351562,1655.60180664062,2366.30712890625,1446.80981445312,2066.5703125,5.58277940750122,1711.15490722656,1362.41149902344,645.709777832031,3363.48974609375,727.863586425781,1681.48205566406,1341.17797851562,1805.31787109375,214.530319213867,823.749572753906,3249.46752929688,3480.19702148438,2409.22216796875,3782.08349609375,3290.56567382812,1188.21520996094,0.572653234004974,1146.99255371094,2217.13842773438,858.459350585938,1020.78228759766,1690.02429199219,1003.87286376953,1464.47326660156,1625.52209472656,2694.99389648438,688.131164550781,1478.80065917969,485.920989990234,2039.46350097656,1105.56860351562,775.468383789062,53.0997314453125,2249.45947265625
1495.53100585938,878.310363769531,5711.458984375,18.0151538848877,4758.41552734375,572.715087890625,218.211349487305,325.923736572266,1349.11389160156,1015.62353515625,1189.09106445312,24.9829235076904,224.798049926758,296.961944580078,2124.78564453125,1165.89587402344,3091.00024414062,4056.84692382812,12059.044921875,1640.83154296875,705.012329101562,3672.6708984375,508.393829345703,4363.33984375,3396.3154296875,432.505889892578,99.5655364990234,2428.5927734375,2867.57666015625,26.0255165100098,0.052072174847126,4415.115234375,126.178787231445,2793.59765625,428.000122070312,576.960510253906,2065.05102539062,35.4653816223145,1436.10302734375,1340.3837890625,1487.06164550781,1757.95886230469,1.5554575920105,2704.16943359375,1294.78930664062,2.35210394859314,2941.51147460938,1239.14770507812,4917.0439453125,3448.26025390625,4429.79541015625,1695.09411621094,305.744110107422,338.695037841797,2939.22607421875,3037.47924804688,803.374450683594,383.735595703125,361.675750732422,55.623966217041,1069.04113769531,1290.79223632812,225.566299438477,1672.79174804688,176.091262817383,1300.94384765625,1465.92114257812,1002.1298828125,457.800415039062,1756.12609863281,1237.44165039062,2554.58935546875,2101.7421875
1733.9638671875,1193.18029785156,1109.1259765625,2416.95581054688,424.495178222656,1745.98522949219,3760.06518554688,3969.72485351562,1647.05578613281,1531.994140625,480.037811279297,411.693511962891,1344.79821777344,2111.91796875,24.0342311859131,550.789367675781,1771.28942871094,803.724670410156,763.158630371094,4273.6494140625,1594.6953125,2143.06958007812,3515.279296875,3.6736786365509,506.33154296875,7669.11279296875,4935.32177734375,5056.46923828125,385.304077148438,6105.9658203125,2275.60961914062,1589.05078125,1838.78112792969,538.187744140625,4136.1171875,1489.68981933594,548.908264160156,4246.68896484375,1394.53881835938,2071.2265625,111.054046630859,755.914428710938,7120.03662109375,1875.42541503906,1155.10546875,4245.3251953125,9.0146484375,1771.94860839844,1994.68737792969,736.034362792969,632.3759765625,5387.3251953125,7311.310546875,6247.69189453125,846.119140625,123.52229309082,1111.12780761719,1071.57373046875,1527.01489257812,2427.623046875,737.831970214844,623.3046875,474.114807128906,8.29187965393066,604.9501953125,1098.73645019531,527.746948242188,1766.83862304688,1557.18420410156,270.288360595703,16.1352596282959,327.074157714844,605.850708007812
5.70259857177734,2167.337890625,1438.86633300781,1996.07983398438,10287.6142578125,1985.54992675781,13.2231912612915,6.69521474838257,2680.77563476562,1841.13708496094,25.4321918487549,1993.39990234375,900.515197753906,21.0698909759521,571.54296875,968.010131835938,6014.91650390625,6954.8896484375,2849.68627929688,3718.51245117188,45.9095573425293,4331.2822265625,2647.84130859375,9330.126953125,5448.26171875,1414.34057617188,548.996032714844,487.312561035156,6745.67724609375,645.483947753906,2819.65307617188,1215.64465332031,2326.42797851562,5685.57666015625,24.1310615539551,724.781311035156,1247.27197265625,8.06770420074463,232.529693603516,528.49658203125,4617.404296875,2459.63452148438,207.291473388672,746.643859863281,3789.15649414062,90.4151840209961,6440.30859375,11.0413846969604,1255.16625976562,2529.5576171875,2928.3193359375,223.237121582031,1059.77270507812,1022.91571044922,5318.4033203125,838.887023925781,282.667785644531,595.216857910156,1448.01379394531,371.701446533203,1291.84997558594,2756.32885742188,722.726928710938,3367.7626953125,1285.20190429688,63.3184509277344,3602.55029296875,86.7837829589844,795.86181640625,3363.92822265625,2424.39599609375,702.688110351562,1537.57873535156
5519.18310546875,328.691955566406,2748.09692382812,497.256958007812,68.1223373413086,91.9779052734375,5364.49072265625,1177.9912109375,297.148406982422,127.642143249512,1580.15466308594,199.477264404297,1531.59790039062,1004.91522216797,1085.32397460938,230.65348815918,2675.43530273438,2296.57055664062,3871.82885742188,300.866607666016,3481.06713867188,5003.2548828125,2779.26708984375,207.956695556641,3.15975379943848,1909.31469726562,1318.35021972656,2736.841796875,11.1414642333984,1736.8564453125,511.254211425781,2688.49877929688,1.70234847068787,6.58255004882812,1586.56030273438,1943.81469726562,754.725463867188,1119.9521484375,4147.89404296875,3224.19604492188,1.43176448345184,2199.83349609375,1597.6220703125,1917.30493164062,307.679931640625,1908.03637695312,351.840728759766,4561.02099609375,2845.77465820312,1317.69689941406,1906.29187011719,2747.35717773438,1803.37731933594,1309.02917480469,2033.50720214844,912.389709472656,2116.60400390625,1041.82666015625,535.507507324219,845.608337402344,514.819519042969,105.29972076416,207.207244873047,177.039535522461,70.863883972168,823.590087890625,136.730331420898,3931.271484375,2278.89331054688,1161.94372558594,94.3371353149414,1208.14636230469,873.615295410156
190.010025024414,6077.478515625,78.2057876586914,5365.63623046875,2581.22705078125,4111.70166015625,32.5131683349609,1813.11791992188,1070.06530761719,937.387084960938,17.3280220031738,3207.37353515625,1490.23291015625,785.550476074219,11.6608734130859,1443.671875,1924.63500976562,2274.67138671875,23.5363960266113,1982.08959960938,336.502044677734,1089.68310546875,6343.3037109375,2548.52001953125,644.334228515625,3212.15234375,2707.34814453125,2163.46923828125,2985.61669921875,3045.22387695312,6200.31396484375,370.794586181641,6446.68408203125,1868.09973144531,1814.95288085938,2195.64624023438,1512.63525390625,1674.95886230469,1.38258492946625,1844.79797363281,1502.34606933594,545.790893554688,2904.67529296875,732.051391601562,1668.82861328125,1483.06958007812,1663.53601074219,202.927688598633,771.6474609375,3154.83251953125,3030.0703125,2511.27905273438,3267.92504882812,3054.19702148438,1219.39855957031,22.8999557495117,1061.646484375,2445.76977539062,1132.91809082031,1043.52331542969,1684.958984375,1063.72241210938,2024.06970214844,1271.49987792969,3153.1259765625,1320.95556640625,1280.66198730469,309.313354492188,1586.33239746094,1009.77362060547,345.576538085938,281.978820800781,2465.009765625
2253.31884765625,1395.52001953125,5264.22705078125,901.136962890625,2760.54516601562,683.943908691406,3685.556640625,16.4407539367676,2131.69165039062,1856.35949707031,603.763977050781,111.417877197266,335.359252929688,317.695434570312,2715.22509765625,932.759216308594,2915.712890625,4551.8955078125,8506.2275390625,2178.38525390625,1158.22521972656,3563.57690429688,503.704650878906,3640.2734375,1051.92639160156,434.617919921875,65.8906860351562,1947.06103515625,2818.23510742188,56.0956954956055,0.379076600074768,4967.619140625,328.710632324219,2278.068359375,384.618408203125,581.846374511719,2437.38208007812,38.6425170898438,1338.02648925781,742.830932617188,1319.02685546875,1734.92858886719,1.30084645748138,3292.14672851562,1335.60021972656,6.54763555526733,2890.71752929688,1314.53186035156,5004.609375,3161.84252929688,4238.67138671875,1884.7119140625,340.838623046875,391.609039306641,2769.71533203125,2537.48046875,731.03955078125,309.053649902344,455.463897705078,49.1190528869629,1150.80773925781,1129.19580078125,581.875,2122.02197265625,255.309860229492,1774.98461914062,1385.59680175781,778.044006347656,896.258605957031,1790.53979492188,1562.51611328125,3018.9794921875,2203.77880859375
2993.6318359375,4187.21826171875,1034.07739257812,1392.64685058594,304.26220703125,1092.91577148438,2931.95751953125,2897.90600585938,503.703430175781,833.901123046875,1143.1630859375,960.050537109375,964.581970214844,1982.3935546875,39.1584091186523,497.857696533203,134.865570068359,574.261169433594,194.016082763672,3015.44116210938,1840.60852050781,1853.06298828125,3480.63720703125,19.0423221588135,823.830322265625,6516.83447265625,5124.48095703125,5104.6396484375,591.764892578125,5837.66455078125,2397.82446289062,1380.07958984375,1604.95068359375,534.165466308594,4021.44116210938,1406.14672851562,535.550231933594,4622.25390625,1356.34680175781,2047.26184082031,140.195648193359,982.327941894531,6777.4404296875,2041.91882324219,995.350830078125,4185.23095703125,18.4012203216553,1875.91577148438,2181.15112304688,630.718200683594,502.768371582031,5308.26953125,6377.5283203125,6814.8759765625,920.7470703125,133.732025146484,1317.72265625,1144.47155761719,1599.14501953125,2386.28393554688,456.522644042969,680.580017089844,561.245422363281,6.87930917739868,1002.26019287109,1890.75549316406,266.748199462891,1012.86309814453,1229.60949707031,184.253921508789,314.886352539062,1242.53076171875,599.413818359375
2.82368731498718,3700.31787109375,1982.88854980469,6368.51171875,6704.4541015625,2465.962890625,1412.86071777344,194.446838378906,3938.89111328125,4219.943359375,76.4739074707031,1161.146484375,606.590087890625,1.10158514976501,707.94140625,1201.41821289062,7897.8232421875,7970.9248046875,2763.62377929688,5478.0146484375,50.8215026855469,4738.7255859375,2731.30786132812,8804.9013671875,4253.15576171875,1144.1201171875,518.140747070312,457.916473388672,6936.087890625,523.879455566406,3170.66723632812,1238.7685546875,2580.896484375,5475.72021484375,28.2017860412598,713.595031738281,1369.69079589844,21.288990020752,147.13801574707,565.518188476562,4230.177734375,2531.26171875,256.295867919922,883.818298339844,3706.9560546875,157.823593139648,6560.6044921875,13.7069358825684,1162.94470214844,2217.34765625,3353.28979492188,205.55517578125,1438.203125,1057.53332519531,5159.3310546875,986.513916015625,376.096496582031,863.769592285156,1263.6318359375,289.95654296875,750.736267089844,2950.69921875,1026.18090820312,4105.19873046875,1371.93481445312,612.121276855469,3794.81079101562,378.830902099609,493.108612060547,3431.13623046875,4356.24072265625,639.106872558594,1496.95849609375
6616.8740234375,190.487258911133,5175.99951171875,124.219940185547,2.73300361633301,184.228012084961,7366.72119140625,438.528686523438,86.3196563720703,21.238452911377,2940.35302734375,214.692092895508,1249.73645019531,887.151245117188,729.260925292969,241.207489013672,1000.34582519531,4515.28466796875,4119.22119140625,497.329772949219,3333.79907226562,5241.201171875,2523.2119140625,179.282791137695,601.910278320312,1889.83996582031,1097.23803710938,2420.51928710938,0.0115935076028109,1483.88500976562,592.9306640625,2562.72729492188,39.4164428710938,16.6029815673828,1373.41284179688,1599.26892089844,696.713073730469,1390.49951171875,3786.28759765625,3626.9287109375,6.84772253036499,2264.01513671875,1797.27685546875,1936.14599609375,216.555541992188,1488.43090820312,416.515380859375,4632.64208984375,2923.92138671875,1354.55187988281,2237.90014648438,2389.9892578125,1415.79992675781,1657.99951171875,2206.080078125,1066.30017089844,2301.58618164062,665.3798828125,615.446350097656,794.602905273438,705.158447265625,329.205474853516,386.315673828125,400.288513183594,6.38158178329468,1302.85815429688,0.67134964466095,3115.70971679688,1726.55908203125,981.796569824219,443.150085449219,2096.56420898438,874.73876953125
695.046630859375,6870.537109375,0.0206181537359953,6773.15234375,3410.4130859375,4795.09765625,8.40742206573486,2354.15234375,1234.20593261719,1311.33056640625,588.382995605469,2887.97290039062,1562.15368652344,1392.90649414062,1.97909533977509,1513.94116210938,3059.2138671875,1893.27795410156,22.1449489593506,6295.39306640625,363.608154296875,1159.51257324219,5867.84716796875,2652.92431640625,3130.40551757812,3034.61694335938,2569.30688476562,2090.11401367188,2378.94970703125,2841.658203125,6728.7119140625,365.551452636719,5361.66552734375,2184.76977539062,1414.76062011719,1818.21704101562,1495.46020507812,1698.71960449219,10.3857021331787,1521.14526367188,1620.87390136719,851.066162109375,3530.42529296875,747.442565917969,1640.98364257812,1472.04516601562,2004.47937011719,234.27262878418,713.396545410156,3048.78564453125,3865.57885742188,2640.42626953125,3983.53051757812,2930.24487304688,1204.05615234375,2.88609051704407,1184.96740722656,2182.4091796875,940.228332519531,998.248901367188,1811.42639160156,1152.92578125,2524.06079101562,706.295166015625,3235.78637695312,604.327209472656,1032.13305664062,834.024291992188,1765.20568847656,998.568603515625,932.293395996094,337.085205078125,2218.92919921875
2194.74975585938,657.655456542969,8351.681640625,44.1825180053711,2887.65234375,1182.92626953125,990.488464355469,38.4511604309082,1487.66931152344,2203.76953125,731.226440429688,0.641510546207428,209.373733520508,399.940582275391,2413.73046875,675.542663574219,3432.54125976562,7862.61767578125,8343.5400390625,3496.89794921875,814.020263671875,3893.48657226562,177.030822753906,3757.19409179688,2631.11694335938,290.866973876953,122.650779724121,1749.57189941406,2938.47924804688,85.0229873657227,14.0165719985962,5058.54736328125,297.514129638672,2570.96850585938,451.839599609375,483.192901611328,2431.11474609375,42.2763557434082,1385.96325683594,1045.66296386719,1436.2314453125,1824.79382324219,6.70453453063965,2874.5732421875,1384.7490234375,0.943453788757324,3153.68969726562,1257.2451171875,5030.77587890625,3119.1669921875,4533.5498046875,1648.68420410156,268.955932617188,295.559326171875,2975.30737304688,2905.40502929688,557.4248046875,253.035736083984,437.589416503906,39.9948310852051,1936.716796875,810.315551757812,978.582702636719,2251.03857421875,311.113067626953,1939.42395019531,1671.52478027344,1227.34777832031,151.989669799805,2183.2421875,1265.68408203125,3186.41918945312,1932.40576171875
3165.47973632812,2442.66870117188,599.409423828125,1738.64514160156,778.747802734375,860.537719726562,3077.68798828125,5214.12744140625,572.617553710938,330.012573242188,2109.02612304688,760.929016113281,1015.18859863281,2538.53247070312,120.952964782715,384.554443359375,275.089599609375,335.580383300781,63.2170028686523,4991.498046875,1357.87182617188,2029.37768554688,2507.15771484375,37.6361465454102,934.262268066406,7293.52783203125,5646.70068359375,6140.56591796875,452.867340087891,6411.84033203125,2247.12353515625,1317.90954589844,1660.75500488281,513.393188476562,3956.462890625,1297.56213378906,410.564208984375,4435.5576171875,1205.08361816406,1961.00720214844,116.890357971191,681.35498046875,6960.306640625,1868.86083984375,1139.23120117188,4123.4638671875,2.34165954589844,1891.9072265625,1926.85681152344,705.071716308594,639.427307128906,5391.88427734375,7330.8828125,6824.13232421875,965.535461425781,168.092742919922,1192.61145019531,1013.97058105469,1330.99829101562,2921.17602539062,721.054321289062,470.6630859375,634.7158203125,22.1697788238525,755.085388183594,1684.37622070312,192.438140869141,1866.30041503906,1392.36157226562,315.197875976562,72.0903167724609,801.291687011719,766.266662597656
1.79700994491577,2964.4794921875,1319.43530273438,3728.52587890625,6053.783203125,3422.36059570312,4.62212228775024,49.6002807617188,4841.84375,3815.02294921875,39.0811004638672,1752.85754394531,639.170349121094,65.3101043701172,788.975891113281,637.027526855469,8934.41015625,9712.3681640625,2578.62890625,5353.07275390625,5.085768699646,4354.322265625,3139.82885742188,9078.8310546875,7307.98291015625,1397.830078125,758.582580566406,253.619445800781,7102.0869140625,656.191833496094,2444.83544921875,1336.14086914062,2443.90185546875,5753.1181640625,34.4588508605957,812.160827636719,1473.40747070312,22.8038082122803,217.242706298828,550.057678222656,4428.20849609375,2630.85205078125,231.404876708984,689.080627441406,3708.49853515625,146.217056274414,6551.71240234375,13.4320583343506,1274.54284667969,2338.71850585938,2665.72680664062,234.69856262207,1183.25170898438,982.524536132812,5287.22314453125,898.084106445312,438.800872802734,680.92578125,1241.12817382812,232.279830932617,885.762939453125,3038.20678710938,1079.869140625,3746.224609375,1501.9970703125,512.0615234375,3336.78637695312,63.5682067871094,1334.0400390625,3606.0400390625,3423.8583984375,784.027221679688,1676.36865234375
5726.4580078125,0.918935060501099,3983.15185546875,86.5349197387695,28.0387229919434,486.757354736328,5823.15185546875,2419.7275390625,0.730536282062531,143.695388793945,3487.544921875,219.578826904297,1283.66381835938,783.921203613281,1066.90258789062,210.705993652344,1798.36315917969,2905.03588867188,3248.77392578125,603.61572265625,4215.35888671875,4799.39990234375,2396.66772460938,145.235794067383,4.66259431838989,1935.57775878906,1606.31787109375,2821.13159179688,0.011653239838779,1818.15393066406,506.430786132812,2982.98974609375,4.58916156276246e-06,4.43699741363525,1550.4638671875,1871.85791015625,1002.53747558594,1436.67822265625,3798.69287109375,3276.81396484375,2.22281956672668,2034.57800292969,1679.23461914062,1770.31762695312,306.110565185547,1385.02404785156,192.715698242188,4740.1259765625,2925.1259765625,1376.50134277344,1960.28015136719,2412.73950195312,1544.98022460938,1965.60437011719,2299.26904296875,812.969421386719,2121.33349609375,884.157897949219,360.198028564453,877.872741699219,343.644439697266,82.5093460083008,523.6416015625,87.0057144165039,19.2021789550781,1002.76361083984,18.1273708343506,3890.18090820312,2340.8359375,1246.84069824219,142.85334777832,1733.38195800781,659.359741210938
536.812866210938,4804.14990234375,464.493133544922,6738.55224609375,2130.69165039062,5127.03955078125,24.5564765930176,3614.19921875,2252.52001953125,1392.72119140625,385.011657714844,3607.74365234375,1699.94177246094,841.187194824219,2.1129138469696,1400.91955566406,3053.61181640625,3511.27685546875,25.0870838165283,2774.96508789062,292.044708251953,1194.32800292969,4638.77587890625,2840.57934570312,2484.76342773438,3465.08935546875,3203.703125,2069.61328125,2556.35229492188,3080.71313476562,6076.5419921875,526.631530761719,5857.76220703125,1902.07275390625,1649.43896484375,2247.74829101562,1336.10070800781,1766.94311523438,30.812406539917,1520.79528808594,1600.77221679688,710.793090820312,2468.12133789062,768.458557128906,1690.21411132812,1462.78405761719,1747.17456054688,206.377166748047,710.380187988281,2926.27294921875,3267.9755859375,2332.42114257812,4092.79565429688,3241.22290039062,1143.00708007812,0.534777045249939,805.591918945312,2308.076171875,717.260559082031,721.227783203125,1084.88891601562,863.20947265625,2144.99169921875,1221.74658203125,2815.13256835938,740.0341796875,1018.46673583984,679.081604003906,1655.70397949219,707.344604492188,1126.59790039062,383.622985839844,2774.4912109375
2207.12548828125,559.765991210938,8171.4169921875,87.9488372802734,4174.466796875,1161.89331054688,2281.66650390625,297.153076171875,2022.9365234375,753.5390625,804.316162109375,0.398912876844406,332.861053466797,398.582489013672,2236.10473632812,742.691711425781,5123.416015625,11495.54296875,10907.4658203125,1364.18591308594,1785.60729980469,3565.33056640625,530.214050292969,3841.13500976562,2997.759765625,444.261474609375,33.5859451293945,1534.79565429688,3005.79907226562,53.7696342468262,2.49887800216675,5453.82666015625,273.842437744141,2228.65649414062,344.775695800781,492.781768798828,2369.08984375,39.3684463500977,1367.82568359375,782.738098144531,1293.94360351562,1447.98596191406,15.1303586959839,3196.6259765625,1364.0810546875,1.05429744720459,2669.57153320312,1410.33081054688,5027.1845703125,2994.70556640625,4187.4716796875,1642.30261230469,365.78955078125,407.256042480469,2873.90625,2478.45849609375,715.635070800781,245.523162841797,498.887878417969,188.42414855957,913.035705566406,1214.60290527344,1081.71740722656,1375.84558105469,60.0944175720215,1205.66369628906,1579.55700683594,983.315551757812,842.347106933594,2281.1259765625,1175.96948242188,2970.03076171875,1951.84143066406
3387.40649414062,1734.61840820312,1414.38244628906,1964.45886230469,407.663848876953,1312.69580078125,1341.20874023438,6740.5009765625,1053.55749511719,379.549377441406,1741.90832519531,1316.13391113281,1674.50561523438,2193.3974609375,84.4449615478516,549.722045898438,453.13720703125,60.543384552002,819.1845703125,4417.56103515625,1815.42553710938,1655.54248046875,1762.83471679688,25.4465026855469,882.913452148438,6806.9423828125,5312.0556640625,4734.361328125,447.102081298828,6339.82958984375,2219.48803710938,1412.38269042969,1775.15942382812,426.561279296875,3817.83032226562,1356.71398925781,397.037750244141,4686.83740234375,1106.32824707031,2001.33190917969,230.058776855469,773.807189941406,6105.2001953125,1741.35302734375,1066.12475585938,4144.9580078125,2.35234141349792,1824.70129394531,1918.4482421875,671.172119140625,783.935363769531,5243.24609375,7497.80224609375,6623.42529296875,1049.8271484375,58.3845443725586,921.210754394531,950.194519042969,1554.39916992188,2107.25561523438,649.816833496094,133.348648071289,638.033508300781,12.8241987228394,767.762329101562,1834.21594238281,438.670227050781,1890.28942871094,1197.55346679688,365.984466552734,53.183177947998,1080.44787597656,751.11279296875
25.1887149810791,2775.61206054688,1592.20678710938,2862.91333007812,6764.9560546875,2685.01953125,368.788208007812,42.9309272766113,2957.85205078125,3502.93701171875,36.5783271789551,1847.28100585938,680.585998535156,227.703552246094,648.183166503906,821.1982421875,10164.1064453125,14499.0341796875,3916.20703125,3368.90209960938,51.0135536193848,4928.92529296875,3207.8125,9097.099609375,7331.25244140625,1358.20837402344,397.915618896484,301.760131835938,6808.5625,560.541870117188,2866.5439453125,1350.53283691406,2449.84619140625,5083.06689453125,9.22262573242188,812.260314941406,1241.98754882812,40.8959465026855,167.626800537109,622.124084472656,4058.82495117188,2299.22973632812,130.207611083984,1082.85217285156,3789.41870117188,125.586326599121,6751.9111328125,7.86865139007568,1203.00061035156,2345.60375976562,2910.408203125,173.471862792969,1006.27716064453,1461.23742675781,4943.56005859375,1511.51806640625,372.026947021484,658.380065917969,1334.77221679688,286.865264892578,615.894348144531,3393.34375,1269.29821777344,3859.2705078125,1338.46887207031,378.745239257812,4845.306640625,243.625579833984,685.602783203125,3617.66235351562,3738.025390625,648.899047851562,1512.39135742188
5768.56201171875,19.2558994293213,3960.34521484375,391.271820068359,1.8748551607132,26.5480422973633,4334.37890625,1465.49060058594,488.660858154297,0.153951615095139,3791.38110351562,414.957305908203,1266.12768554688,618.489501953125,1308.38244628906,180.899780273438,1774.82775878906,1935.94665527344,4443.4482421875,988.725891113281,3117.14575195312,5247.3916015625,2120.412109375,267.998657226562,20.9413394927979,1835.67944335938,1038.01708984375,2612.67700195312,1.31722152233124,1658.57397460938,432.459564208984,2532.08813476562,0.0170805398374796,9.15290641784668,1283.97961425781,1806.07067871094,833.948486328125,1543.16015625,3818.0234375,3791.86962890625,0.939911067485809,2109.69189453125,1967.34912109375,1794.05224609375,232.411560058594,1547.52453613281,318.770141601562,4540.26953125,2779.96801757812,1301.01208496094,1929.84594726562,2472.39526367188,1705.21228027344,1414.61206054688,2271.76611328125,1281.09973144531,2495.79565429688,729.983764648438,815.916076660156,721.954406738281,228.643814086914,28.2040748596191,472.516143798828,251.462097167969,99.022102355957,1324.4677734375,76.0106658935547,3545.64672851562,2523.23901367188,805.411987304688,304.574035644531,1730.94299316406,972.459350585938
546.497619628906,5416.1435546875,842.950805664062,6885.6494140625,1756.04614257812,4725.53466796875,0.428891360759735,2365.41015625,1571.86730957031,1723.55627441406,702.268310546875,3627.71215820312,1424.26342773438,419.068511962891,27.5872993469238,1063.50695800781,2901.62915039062,1634.62377929688,36.254753112793,2035.88354492188,955.720153808594,1186.05065917969,7123.94482421875,2231.8369140625,3416.34326171875,3171.97119140625,2416.76293945312,2223.41162109375,2541.41381835938,2858.28881835938,6211.98876953125,503.283935546875,5431.81982421875,1821.17504882812,1588.671875,2131.47778320312,1463.12609863281,1594.08264160156,5.44526767730713,1523.0712890625,1637.08715820312,831.051879882812,3398.61108398438,673.484985351562,1669.560546875,1404.80407714844,1952.32348632812,224.560424804688,652.404479980469,3354.611328125,3286.57739257812,2596.90405273438,3429.48095703125,3131.58471679688,1213.41076660156,102.424201965332,1283.33422851562,1966.11645507812,1022.81787109375,505.184722900391,1075.74780273438,1069.97924804688,2600.26000976562,1635.20739746094,4448.1669921875,471.859802246094,2347.09912109375,683.066162109375,1870.40307617188,870.019226074219,1212.00146484375,149.465576171875,1973.79821777344
1431.87316894531,1057.19274902344,5774.03564453125,4.10211944580078,2882.07934570312,592.224304199219,837.087646484375,20.2210121154785,936.459594726562,1139.67541503906,1352.51806640625,3.92552280426025,106.965545654297,151.058609008789,2605.36206054688,641.407653808594,3751.1259765625,4822.68310546875,4677.02392578125,1962.19555664062,669.035522460938,4029.64697265625,533.639953613281,4075.2890625,3682.1572265625,371.548553466797,79.044921875,1847.99426269531,3076.98120117188,86.8778610229492,3.7318811416626,5135.3759765625,272.836120605469,2177.90991210938,415.524597167969,657.106872558594,2464.98828125,64.0452041625977,1317.74011230469,916.225463867188,1667.04174804688,1938.26257324219,25.436092376709,3205.28955078125,1344.30407714844,0.452135533094406,3050.30322265625,1371.87292480469,5110.59814453125,3085.462890625,4495.24658203125,1626.17553710938,292.501403808594,329.329010009766,2923.15844726562,3685.38061523438,861.376831054688,317.928070068359,406.565795898438,154.316818237305,885.179870605469,893.965148925781,1008.26354980469,2673.45336914062,737.143310546875,1994.13708496094,1516.92431640625,1165.90893554688,763.000183105469,1925.88269042969,1153.43420410156,3673.06396484375,2280.28979492188
2354.12939453125,1726.68518066406,1830.91662597656,2381.328125,348.577941894531,1004.36889648438,2321.85327148438,3839.83715820312,988.622253417969,317.294250488281,3399.7412109375,1163.48876953125,931.198852539062,2191.33056640625,0.716747522354126,208.290222167969,230.578796386719,776.474670410156,232.997787475586,2485.396484375,2717.87182617188,2294.8623046875,3317.4580078125,17.4980964660645,1510.32116699219,6970.279296875,5663.5146484375,5915.8271484375,495.764526367188,6284.2099609375,2103.83203125,1624.26831054688,1558.27368164062,443.725646972656,4036.13720703125,1587.65966796875,444.281555175781,4176.0791015625,1212.78833007812,1818.69079589844,175.351867675781,782.621154785156,7413.88232421875,2163.20825195312,1155.63012695312,4135.18701171875,10.8977117538452,1888.06066894531,1760.287109375,640.572692871094,670.740600585938,5268.794921875,7478.2119140625,6785.1376953125,814.647827148438,56.9745483398438,1319.91638183594,1257.61743164062,1467.85522460938,2574.44995117188,450.541290283203,201.362991333008,676.863952636719,34.554271697998,1312.95458984375,1654.90087890625,673.359802246094,1400.70593261719,1419.76550292969,249.025253295898,26.2630062103271,855.793029785156,373.340209960938
0.0176855120807886,3450.5966796875,896.84716796875,3199.3642578125,6282.47216796875,2821.93286132812,159.776992797852,37.1263809204102,3675.42797851562,2661.18017578125,56.7834663391113,1682.88708496094,518.068298339844,32.8582763671875,528.321899414062,782.982727050781,9339.0244140625,7768.67138671875,1357.72387695312,3951.65649414062,39.1745758056641,4228.5068359375,2620.79296875,9055.4453125,8582.9765625,1528.56433105469,353.223419189453,193.909881591797,7455.982421875,621.811157226562,2546.81323242188,1167.18994140625,2637.7451171875,5093.87890625,40.2526626586914,762.349975585938,1318.08459472656,32.6393585205078,126.726234436035,694.512329101562,4190.5283203125,2780.18725585938,159.772979736328,804.147827148438,3620.10083007812,183.429901123047,6533.1474609375,0.784347355365753,1134.26513671875,2063.25903320312,2846.09692382812,186.980102539062,1177.705078125,991.185852050781,5272.119140625,1130.1962890625,431.574462890625,801.9560546875,1546.90100097656,474.110229492188,594.50341796875,3039.38134765625,968.659362792969,4781.93798828125,1814.11743164062,617.637634277344,3988.04931640625,33.8585929870605,823.380126953125,4215.1064453125,2941.16333007812,1052.80798339844,1603.26611328125
2561.60424804688,32.2014694213867,3079.99682617188,93.3846664428711,0.20229683816433,223.073547363281,5325.916015625,153.426330566406,124.717666625977,7.28847599029541,4314.60107421875,299.450836181641,1494.98107910156,1063.23376464844,1077.82983398438,222.675735473633,1410.52136230469,1791.76989746094,3608.32202148438,1321.05114746094,4085.65893554688,5637.49267578125,3032.1142578125,355.170074462891,134.9091796875,2109.12646484375,1583.96154785156,2698.8818359375,1.99202394485474,1608.30639648438,467.370574951172,2701.86010742188,0.0200829822570086,7.78328275680542,1505.0341796875,1908.48828125,804.314758300781,1348.99084472656,3742.70678710938,3431.03833007812,0.00215352512896061,2436.71362304688,1758.32006835938,1864.34240722656,340.924041748047,1405.08898925781,334.115692138672,4607.91455078125,2446.92895507812,1513.86364746094,1621.34887695312,2489.1962890625,1765.431640625,2046.82312011719,2268.75830078125,819.220947265625,2021.10888671875,1229.40966796875,479.968200683594,1256.12976074219,242.676696777344,58.4158973693848,623.206665039062,368.406646728516,16.4787445068359,1863.10693359375,10.1076383590698,3310.42993164062,2766.416015625,767.658020019531,268.451171875,2487.01025390625,983.742370605469
264.857299804688,5120.9423828125,318.198364257812,5798.73779296875,2118.90014648438,4437.63232421875,844.767700195312,1582.22680664062,1414.78247070312,2351.2509765625,712.254211425781,3098.71044921875,1248.92126464844,788.712097167969,0.0960529074072838,1584.64367675781,3160.46069335938,1683.5078125,790.135437011719,3262.16430664062,221.562408447266,1060.47570800781,6586.923828125,2948.58227539062,3405.96484375,3809.75024414062,2263.93383789062,2363.26147460938,2857.98095703125,2563.42211914062,6153.44921875,601.691162109375,6044.75537109375,1886.4453125,1620.36157226562,2251.244140625,1446.77001953125,1670.30688476562,4.45527124404907,1528.59692382812,1455.65368652344,646.283874511719,3024.48559570312,816.616455078125,1756.20471191406,1386.80981445312,1845.62341308594,194.78288269043,978.145263671875,2946.22875976562,3179.73950195312,2389.40698242188,3693.71069335938,3092.24169921875,1139.24792480469,0.532605588436127,1128.78527832031,2605.67407226562,992.032775878906,605.723876953125,1516.11853027344,1388.62280273438,2957.07739257812,1061.31237792969,3099.94677734375,1029.40161132812,1686.05432128906,560.095397949219,2016.05187988281,1042.29064941406,871.582092285156,239.494964599609,2779.26147460938
503.109100341797,1248.00659179688,5230.33349609375,25.9054756164551,2921.97021484375,855.979736328125,1276.46936035156,361.006439208984,712.6787109375,1671.44213867188,846.031921386719,4.74113988876343,359.625366210938,225.276657104492,3517.48486328125,534.428405761719,4517.05078125,4830.8076171875,7502.07177734375,843.416015625,1001.56164550781,3879.66015625,585.327392578125,3573.33862304688,2844.10986328125,288.428894042969,60.8747177124023,1745.2109375,3267.248046875,163.289932250977,8.78705024719238,5114.79345703125,302.703369140625,2354.07275390625,370.241149902344,478.272735595703,2297.74169921875,21.9088840484619,1394.17419433594,941.365051269531,1635.74743652344,1800.20678710938,1.01527714729309,2840.89916992188,1318.46130371094,0.0832598432898521,2809.5390625,1323.25573730469,4300.3212890625,3296.3583984375,3798.53295898438,1756.90380859375,303.729248046875,297.576782226562,3164.705078125,1961.88122558594,594.523803710938,452.268981933594,465.075988769531,194.602783203125,1092.05786132812,471.92333984375,1325.86474609375,2519.291015625,227.226119995117,2543.12060546875,2317.28979492188,1186.02807617188,1070.64172363281,1504.30932617188,1251.26806640625,3291.21923828125,2162.58911132812
3467.20263671875,1516.67053222656,930.134033203125,1326.412109375,389.296142578125,740.477172851562,2541.2314453125,4213.791015625,823.442077636719,1392.64282226562,1699.89428710938,1240.40393066406,1255.65747070312,2032.46557617188,43.0361595153809,396.807708740234,282.909820556641,929.630676269531,57.8207969665527,3716.8447265625,1494.68786621094,1531.29016113281,3559.08618164062,75.6149749755859,736.138977050781,7510.94384765625,5222.78125,5340.72998046875,695.791442871094,5085.6806640625,2252.02026367188,1490.23608398438,1840.73608398438,550.329162597656,4026.19946289062,1426.34790039062,534.575866699219,4115.41162109375,1192.19201660156,1727.23852539062,242.072570800781,943.804016113281,6682.1591796875,1901.60961914062,1150.13977050781,4353.826171875,0.0487832278013229,1962.66369628906,2159.90234375,811.72216796875,636.462341308594,4834.58203125,7335.1845703125,6373.62109375,1013.0107421875,83.9771957397461,1060.56042480469,1156.10302734375,1462.7275390625,1740.50793457031,691.66455078125,358.346282958984,1884.48474121094,2.92174363136292,1171.734375,2943.3916015625,686.57275390625,1970.44873046875,1636.21496582031,227.726806640625,66.1421890258789,511.107940673828,785.437194824219
3.60258817672729,4736.38134765625,578.079406738281,1833.98522949219,6308.86669921875,2479.17456054688,39.5669021606445,198.7734375,2381.26708984375,2912.669921875,0.429135292768478,2980.71362304688,621.764404296875,62.6471481323242,897.642944335938,973.445739746094,9558.9873046875,6637.25927734375,2349.54321289062,4115.02197265625,30.1310043334961,4529.041015625,2807.06274414062,8535.076171875,5353.18310546875,1524.40942382812,615.986083984375,412.287536621094,6988.07568359375,814.257446289062,2483.43701171875,1309.93640136719,3162.68676757812,5384.7841796875,43.1071853637695,760.931457519531,1442.63623046875,48.218318939209,201.802917480469,583.716674804688,4754.1083984375,2488.56127929688,108.123733520508,871.669372558594,3816.9794921875,115.054763793945,6656.65478515625,5.25958633422852,1035.40319824219,2566.10424804688,2909.79638671875,220.962097167969,1117.00061035156,1269.51196289062,5264.88232421875,705.867980957031,253.264511108398,547.65966796875,1321.13708496094,1011.48681640625,965.496032714844,1550.39990234375,871.93603515625,3988.37646484375,1385.78601074219,676.079040527344,5279.2744140625,166.885101318359,679.880920410156,3398.31787109375,3161.1064453125,446.922973632812,1381.94506835938
7472.388671875,6.49241638183594,2655.0869140625,88.7208251953125,0.683625519275665,114.543983459473,4304.732421875,1679.11401367188,202.54719543457,63.8303298950195,3043.95629882812,637.270080566406,1206.57751464844,391.215759277344,1478.66748046875,493.933349609375,1468.70593261719,2564.45556640625,4824.69140625,407.740783691406,3851.27856445312,4803.5224609375,2743.40991210938,174.748062133789,27.8195343017578,2048.35107421875,1286.79284667969,2713.76440429688,5.47254848480225,1284.52587890625,581.105163574219,2551.22802734375,0.275618463754654,55.9798736572266,1403.36328125,1910.30224609375,838.631530761719,1552.63635253906,3872.21069335938,3428.689453125,3.91636443138123,2246.08642578125,1942.67224121094,1888.81994628906,221.494186401367,2042.21215820312,337.231658935547,4398.02685546875,2758.96704101562,1311.30297851562,1820.68835449219,2262.32495117188,1775.69470214844,1508.65490722656,2233.8095703125,938.369812011719,2185.17309570312,850.60498046875,590.110717773438,917.916015625,371.621643066406,28.7079772949219,51.6480178833008,35.9008598327637,1.18025386333466,1469.88427734375,68.5100021362305,3508.89111328125,2812.16088867188,793.234741210938,371.845245361328,1456.53930664062,1231.390625
